Time,Finger_Flexor,Force
0:00:00,-13.89145756,3.189083338
00:00.0,-7.067303181,3.189083338
00:00.0,-1.964766741,3.189083338
00:00.0,1.676341772,3.189083338
00:00.0,4.101068497,3.189083338
00:00.0,5.52762413,3.189083338
00:00.0,6.158717155,3.189083338
00:00.0,6.170171261,3.189083338
00:00.0,5.731556416,3.189083338
00:00.0,4.986330032,3.189083338
00:00.0,4.04943943,3.189083338
00:00.0,3.01606226,3.189083338
00:00.0,1.945222139,3.189083338
00:00.0,0.888050795,3.189083338
00:00.0,-0.0904506,3.189083338
00:00.0,-0.962864578,3.189083338
00:00.0,-1.687406421,3.403217554
00:00.0,-2.258645058,3.403217554
00:00.0,-2.668393135,3.403217554
00:00.0,-2.931522369,3.403217554
00:00.0,-3.050447226,3.189083338
00:00.0,-3.039373159,3.189083338
00:00.0,-2.920115709,3.189083338
00:00.0,-2.700814962,3.189083338
00:00.0,-2.399922371,3.189083338
00:00.0,-2.050828934,3.189083338
00:00.0,-1.662745476,3.189083338
00:00.0,-1.274897337,3.189083338
00:00.0,-0.88807708,3.189083338
00:00.0,-0.524625659,3.189083338
00:00.0,-0.182348281,3.189083338
00:00.0,0.119895644,3.189083338
00:00.0,0.379106879,3.189083338
00:00.0,0.598057151,3.189083338
00:00.0,0.783091605,3.189083338
00:00.0,0.937951207,3.189083338
00:00.0,1.037859797,3.189083338
00:00.0,1.092618704,3.189083338
00:00.0,1.11490798,3.189083338
00:00.0,1.08713305,3.189083338
00:00.0,1.033572555,3.189083338
00:00.0,0.948641837,3.189083338
00:00.0,0.840803802,3.189083338
00:00.0,0.717803955,3.189083338
00:00.0,0.586577594,3.189083338
00:00.0,0.457655728,3.189083338
00:00.0,0.329514116,3.189083338
00:00.0,0.220347971,3.189083338
00:00.0,0.127342418,3.403217554
00:00.0,0.030520501,3.403217554
00:00.1,-0.040526997,3.403217554
00:00.1,-0.109315962,3.403217554
00:00.1,-0.171530932,3.189083338
00:00.1,-0.219683439,3.189083338
00:00.1,-0.25855881,3.189083338
00:00.1,-0.277735233,3.189083338
00:00.1,-0.281021357,3.189083338
00:00.1,-0.276304513,3.189083338
00:00.1,-0.264425516,3.189083338
00:00.1,-0.25089398,3.189083338
00:00.1,-0.234672397,2.974949121
00:00.1,-0.215340003,2.974949121
00:00.1,-0.192949116,2.974949121
00:00.1,-0.167897671,2.974949121
00:00.1,-0.136347324,3.189083338
00:00.1,-0.101271443,3.189083338
00:00.1,-0.0606758,3.189083338
00:00.1,-0.018763855,3.189083338
00:00.1,0.016792217,3.189083338
00:00.1,0.054814883,3.189083338
00:00.1,0.099929795,3.189083338
00:00.1,0.126826927,3.189083338
00:00.1,0.139087349,3.189083338
00:00.1,0.13990365,3.189083338
00:00.1,0.132092863,3.189083338
00:00.1,0.113639407,3.189083338
00:00.1,0.079911083,3.189083338
00:00.1,0.056616548,3.189083338
00:00.1,0.03641025,3.189083338
00:00.1,0.014755042,3.189083338
00:00.1,0.007156238,3.189083338
00:00.1,0.004036061,3.189083338
00:00.1,-0.009757568,3.189083338
00:00.1,-0.01998472,3.189083338
00:00.1,-0.027059862,3.189083338
00:00.1,-0.022456815,3.189083338
00:00.1,-0.015458397,3.189083338
00:00.1,-0.012019305,3.189083338
00:00.1,-0.006548462,3.189083338
00:00.1,-0.013760608,3.189083338
00:00.1,-0.010108256,3.189083338
00:00.1,-0.013515048,3.189083338
00:00.1,-0.020825921,3.189083338
00:00.1,-0.025181945,3.189083338
00:00.1,-0.022577455,3.189083338
00:00.1,-0.020138837,3.189083338
00:00.1,-0.017742338,3.189083338
00:00.1,-0.019792629,3.189083338
00:00.1,-0.024066357,3.189083338
00:00.1,-0.024458561,3.189083338
00:00.1,-0.017557789,3.189083338
00:00.1,-0.015413805,3.189083338
00:00.1,-0.00708826,3.189083338
00:00.1,3.47E-05,3.189083338
00:00.1,0.01487558,3.189083338
00:00.1,0.024105329,3.189083338
00:00.1,0.046769105,3.189083338
00:00.1,0.061665777,3.189083338
00:00.1,0.069703065,3.189083338
00:00.1,0.049517762,3.189083338
00:00.1,0.017612381,3.189083338
00:00.1,-0.010033418,3.189083338
00:00.1,-0.032620583,2.974949121
00:00.1,-0.040847547,2.974949121
00:00.1,-0.04805075,2.974949121
00:00.1,-0.044439387,2.974949121
00:00.1,-0.042883743,2.974949121
00:00.1,-0.037622761,2.974949121
00:00.1,-0.025498491,2.974949121
00:00.1,-0.005323116,2.974949121
00:00.1,0.00477542,2.974949121
00:00.1,0.007904772,2.974949121
00:00.1,0.006534248,2.974949121
00:00.1,0.015995795,2.974949121
00:00.1,0.031136449,3.189083338
00:00.1,0.030196039,3.189083338
00:00.1,0.028127672,3.189083338
00:00.1,0.020746412,3.189083338
00:00.1,0.0149856,2.974949121
00:00.1,0.001579856,2.974949121
00:00.1,-0.001922531,2.974949121
00:00.1,-0.007996989,2.974949121
00:00.1,-0.015003647,3.189083338
00:00.1,-0.017282711,3.189083338
00:00.1,-0.011752786,3.189083338
00:00.1,-0.001757261,3.189083338
00:00.1,0.005668192,2.974949121
00:00.1,0.010826985,2.974949121
00:00.1,0.005087114,2.974949121
00:00.1,0.006571375,2.974949121
00:00.1,0.016734174,3.189083338
00:00.1,0.022131668,3.189083338
00:00.1,0.01488864,3.189083338
00:00.1,0.004812281,3.189083338
00:00.1,-0.006204601,3.189083338
00:00.1,-0.007833487,3.189083338
00:00.1,-0.012458944,3.189083338
00:00.1,-0.013890935,3.189083338
00:00.1,-0.0086021,3.189083338
00:00.1,-0.01297987,3.189083338
00:00.2,-0.004803362,3.189083338
00:00.2,0.005922373,3.189083338
00:00.2,0.021660995,2.974949121
00:00.2,0.029834636,2.974949121
00:00.2,0.032244626,2.974949121
00:00.2,0.030440405,2.974949121
00:00.2,0.021264499,2.974949121
00:00.2,0.02142518,2.974949121
00:00.2,0.017914383,2.974949121
00:00.2,0.007614887,2.974949121
00:00.2,-0.010648391,3.189083338
00:00.2,-0.023227058,3.189083338
00:00.2,-0.031051809,3.189083338
00:00.2,-0.039453611,3.189083338
00:00.2,-0.047017939,2.974949121
00:00.2,-0.048340909,2.974949121
00:00.2,-0.045084272,2.974949121
00:00.2,-0.034195602,2.974949121
00:00.2,-0.019066421,2.974949121
00:00.2,-0.002319177,2.974949121
00:00.2,0.009618062,2.974949121
00:00.2,0.008615186,2.974949121
00:00.2,0.013218862,2.974949121
00:00.2,0.020768587,2.974949121
00:00.2,0.024789594,2.974949121
00:00.2,0.021566495,2.974949121
00:00.2,0.005023993,2.974949121
00:00.2,-0.013742544,2.974949121
00:00.2,-0.023036247,2.974949121
00:00.2,-0.016416453,2.974949121
00:00.2,-0.009318858,2.974949121
00:00.2,-0.002349497,2.974949121
00:00.2,-0.000424839,2.974949121
00:00.2,0.002820004,2.974949121
00:00.2,0.015580258,2.974949121
00:00.2,0.028421057,2.974949121
00:00.2,0.039853226,2.974949121
00:00.2,0.048906773,2.974949121
00:00.2,0.05503637,2.974949121
00:00.2,0.058035783,2.974949121
00:00.2,0.049019165,2.974949121
00:00.2,0.041580804,2.974949121
00:00.2,0.017107671,2.974949121
00:00.2,-0.002655583,2.974949121
00:00.2,-0.022480518,2.974949121
00:00.2,-0.022643579,2.974949121
00:00.2,-0.024124255,2.974949121
00:00.2,-0.012744898,2.974949121
00:00.2,-0.021365577,2.974949121
00:00.2,-0.032369658,2.974949121
00:00.2,-0.034616411,2.974949121
00:00.2,-0.035432763,2.974949121
00:00.2,-0.03043144,2.974949121
00:00.2,-0.026427018,2.974949121
00:00.2,-0.018574195,2.974949121
00:00.2,-0.01328107,2.974949121
00:00.2,-0.014286811,2.974949121
00:00.2,0.003539234,2.974949121
00:00.2,0.008923206,2.974949121
00:00.2,-0.002786687,2.974949121
00:00.2,-0.010402252,2.974949121
00:00.2,-0.019127777,2.974949121
00:00.2,-0.027440142,2.974949121
00:00.2,-0.020899342,2.974949121
00:00.2,-0.009957395,2.974949121
00:00.2,-0.005988235,2.974949121
00:00.2,-0.001947569,2.760815144
00:00.2,0.001938239,2.760815144
00:00.2,0.014435128,2.760815144
00:00.2,0.017599592,2.760815144
00:00.2,0.019132636,3.189083338
00:00.2,0.014900351,3.189083338
00:00.2,0.016344031,3.189083338
00:00.2,0.016496249,3.189083338
00:00.2,0.024612665,2.974949121
00:00.2,0.023152214,2.974949121
00:00.2,0.015665978,2.974949121
00:00.2,0.004938199,2.974949121
00:00.2,-0.002439514,2.974949121
00:00.2,-0.016056944,2.974949121
00:00.2,-0.014197526,2.974949121
00:00.2,-0.007343951,2.974949121
00:00.2,-0.002420896,2.974949121
00:00.2,0.005397055,2.974949121
00:00.2,0.009750991,2.974949121
00:00.2,0.015943289,2.974949121
00:00.2,0.00906846,2.974949121
00:00.2,0.003622563,2.974949121
00:00.2,-0.000547114,2.974949121
00:00.2,-0.003593416,2.974949121
00:00.2,-0.00119599,2.974949121
00:00.2,-0.004643889,2.974949121
00:00.2,-0.006847696,2.974949121
00:00.2,-0.012496739,2.974949121
00:00.2,-0.015120742,2.974949121
00:00.2,-0.024402838,2.974949121
00:00.2,-0.027635435,2.974949121
00:00.2,-0.030942315,2.974949121
00:00.2,-0.029040407,2.974949121
00:00.2,-0.028104931,2.974949121
00:00.3,-0.02733301,2.974949121
00:00.3,-0.017260469,2.974949121
00:00.3,0.002480891,2.974949121
00:00.3,0.01758761,2.974949121
00:00.3,0.023999298,2.974949121
00:00.3,0.028846411,2.974949121
00:00.3,0.032059655,3.189083338
00:00.3,0.042610973,3.189083338
00:00.3,0.051734678,3.189083338
00:00.3,0.040624533,3.189083338
00:00.3,0.013113205,2.974949121
00:00.3,-0.008777311,2.974949121
00:00.3,-0.002870831,2.974949121
00:00.3,0.006058506,2.974949121
00:00.3,0.015909063,2.974949121
00:00.3,0.020702798,2.974949121
00:00.3,0.017157702,2.974949121
00:00.3,0.012982031,2.974949121
00:00.3,0.01297852,3.189083338
00:00.3,0.015224355,3.189083338
00:00.3,0.004888511,3.189083338
00:00.3,-0.007953226,3.189083338
00:00.3,-0.025696075,2.760815144
00:00.3,-0.022287583,2.760815144
00:00.3,0.002862291,2.760815144
00:00.3,0.016557984,2.760815144
00:00.3,0.012772554,2.974949121
00:00.3,-0.010582983,2.974949121
00:00.3,-0.030378649,2.974949121
00:00.3,-0.028054735,2.974949121
00:00.3,-0.025546346,2.974949121
00:00.3,-0.031797618,2.974949121
00:00.3,-0.037965264,2.974949121
00:00.3,-0.038540754,2.974949121
00:00.3,-0.035083551,2.974949121
00:00.3,-0.01550065,2.974949121
00:00.3,0.012508524,2.974949121
00:00.3,0.029709643,2.974949121
00:00.3,0.042955142,2.974949121
00:00.3,0.047626089,2.974949121
00:00.3,0.041557863,2.974949121
00:00.3,0.024420334,2.974949121
00:00.3,0.001662563,2.974949121
00:00.3,-0.000243968,2.974949121
00:00.3,-0.016148817,2.974949121
00:00.3,-0.034566864,2.974949121
00:00.3,-0.039050218,2.974949121
00:00.3,-0.038584091,2.974949121
00:00.3,-0.030119959,2.974949121
00:00.3,-0.017057298,2.974949121
00:00.3,0.006911217,2.974949121
00:00.3,0.021997575,2.974949121
00:00.3,0.025637578,2.974949121
00:00.3,0.021682709,2.974949121
00:00.3,0.017660003,2.974949121
00:00.3,0.013733845,2.974949121
00:00.3,0.005561536,2.974949121
00:00.3,-0.00456053,2.974949121
00:00.3,-0.014922787,2.760815144
00:00.3,-0.015370561,2.760815144
00:00.3,-0.013977963,2.760815144
00:00.3,-0.015842097,2.760815144
00:00.3,-0.019274533,2.974949121
00:00.3,-0.01857074,2.974949121
00:00.3,-0.015077311,2.974949121
00:00.3,-0.014365215,2.974949121
00:00.3,-0.010641055,2.974949121
00:00.3,-0.005143748,2.974949121
00:00.3,0.010089392,2.974949121
00:00.3,0.020964729,2.974949121
00:00.3,0.032518182,2.974949121
00:00.3,0.038641669,2.974949121
00:00.3,0.035972048,2.974949121
00:00.3,0.032178469,2.974949121
00:00.3,0.032059621,3.189083338
00:00.3,0.020303842,3.189083338
00:00.3,0.006612226,3.189083338
00:00.3,-0.007222564,3.189083338
00:00.3,-0.006495969,2.760815144
00:00.3,-0.005883517,2.760815144
00:00.3,-0.000923881,2.760815144
00:00.3,-0.00275557,2.760815144
00:00.3,-0.013077718,2.974949121
00:00.3,-0.014143222,2.974949121
00:00.3,-0.009325556,2.974949121
00:00.3,-0.00126001,2.974949121
00:00.3,0.003582582,2.760815144
00:00.3,0.005943703,2.760815144
00:00.3,0.001989611,2.760815144
00:00.3,0.007874125,2.760815144
00:00.3,0.019088317,3.189083338
00:00.3,0.027771644,3.189083338
00:00.3,0.029211244,3.189083338
00:00.3,0.021126499,3.189083338
00:00.3,0.011996654,2.974949121
00:00.3,-0.001745625,2.974949121
00:00.3,-0.012748365,2.974949121
00:00.3,-0.021084093,2.974949121
00:00.3,-0.035848625,3.189083338
00:00.3,-0.043914594,3.189083338
00:00.4,-0.037716061,3.189083338
00:00.4,-0.02288634,3.189083338
00:00.4,-0.012741507,2.974949121
00:00.4,-0.001698837,2.974949121
00:00.4,0.004488583,2.974949121
00:00.4,0.016069559,2.974949121
00:00.4,0.020773239,2.974949121
00:00.4,0.020580688,2.974949121
00:00.4,0.012647845,2.974949121
00:00.4,-0.003984271,2.974949121
00:00.4,-0.024439469,2.974949121
00:00.4,-0.040643379,2.974949121
00:00.4,-0.043325499,2.974949121
00:00.4,-0.045835145,2.974949121
00:00.4,-0.03837594,2.974949121
00:00.4,-0.020381771,2.974949121
00:00.4,-0.006067135,2.974949121
00:00.4,0.000510693,2.974949121
00:00.4,0.010891167,2.974949121
00:00.4,0.018224485,2.974949121
00:00.4,0.022958625,2.974949121
00:00.4,0.021043766,2.974949121
00:00.4,0.015073313,2.974949121
00:00.4,0.020465806,2.974949121
00:00.4,0.023179509,2.974949121
00:00.4,0.023763899,2.974949121
00:00.4,0.018241642,2.974949121
00:00.4,0.009251121,2.974949121
00:00.4,0.003288521,2.974949121
00:00.4,-0.000347338,2.974949121
00:00.4,-0.011186675,2.974949121
00:00.4,-0.011902265,2.974949121
00:00.4,-0.010678797,2.974949121
00:00.4,-0.00374875,2.974949121
00:00.4,0.006124495,2.974949121
00:00.4,0.012388497,2.974949121
00:00.4,0.015742291,2.974949121
00:00.4,0.025754934,2.974949121
00:00.4,0.029638411,3.189083338
00:00.4,0.02899315,3.189083338
00:00.4,0.025178419,3.189083338
00:00.4,0.019329723,3.189083338
00:00.4,0.00790579,2.974949121
00:00.4,-0.0106212,2.974949121
00:00.4,-0.022891423,2.974949121
00:00.4,-0.030066935,2.974949121
00:00.4,-0.042130582,2.974949121
00:00.4,-0.042190883,2.974949121
00:00.4,-0.034372885,2.974949121
00:00.4,-0.021961614,2.974949121
00:00.4,-0.011979218,2.974949121
00:00.4,0.000329325,2.974949121
00:00.4,0.008560304,2.974949121
00:00.4,0.013523862,2.974949121
00:00.4,0.011457219,2.974949121
00:00.4,0.009645464,2.974949121
00:00.4,0.012527287,2.974949121
00:00.4,0.008932714,2.974949121
00:00.4,0.010539342,2.974949121
00:00.4,0.00609893,2.974949121
00:00.4,-0.001725283,2.974949121
00:00.4,-0.006433422,2.974949121
00:00.4,-0.013209627,2.974949121
00:00.4,-0.011522064,2.974949121
00:00.4,-0.013587725,2.974949121
00:00.4,-0.017549612,2.974949121
00:00.4,-0.013095029,2.974949121
00:00.4,-0.003662351,2.974949121
00:00.4,0.008089289,2.974949121
00:00.4,0.006758585,2.974949121
00:00.4,0.01541362,2.974949121
00:00.4,0.029239774,2.974949121
00:00.4,0.035689395,2.974949121
00:00.4,0.036581721,2.974949121
00:00.4,0.033473857,2.974949121
00:00.4,0.023207637,2.974949121
00:00.4,0.009070887,2.974949121
00:00.4,-0.010883912,2.974949121
00:00.4,-0.023648942,2.974949121
00:00.4,-0.026206058,2.974949121
00:00.4,-0.030974755,2.974949121
00:00.4,-0.027364815,2.974949121
00:00.4,-0.032029822,2.974949121
00:00.4,-0.018541459,2.974949121
00:00.4,-0.008301379,2.974949121
00:00.4,0.003674211,2.974949121
00:00.4,0.011174735,2.974949121
00:00.4,0.015170348,2.974949121
00:00.4,0.012027832,2.974949121
00:00.4,0.013605201,2.974949121
00:00.4,0.017746536,2.974949121
00:00.4,0.018365767,2.974949121
00:00.4,0.012034173,2.974949121
00:00.4,-0.002654284,2.974949121
00:00.4,-0.012210985,2.974949121
00:00.4,-0.017664667,2.974949121
00:00.4,-0.024391972,2.974949121
00:00.4,-0.026509741,2.974949121
00:00.4,-0.025253585,2.974949121
00:00.4,-0.02166887,2.974949121
00:00.5,-0.01215419,2.974949121
00:00.5,0.000381097,2.974949121
00:00.5,0.013731221,2.974949121
00:00.5,0.021821409,2.974949121
00:00.5,0.021285355,2.974949121
00:00.5,0.019762784,2.974949121
00:00.5,0.013063484,2.974949121
00:00.5,0.012575427,2.974949121
00:00.5,0.011279501,2.974949121
00:00.5,0.000496464,2.974949121
00:00.5,-0.006207178,2.974949121
00:00.5,-0.014232535,2.974949121
00:00.5,-0.01770064,2.974949121
00:00.5,-0.013365502,2.974949121
00:00.5,-0.01339464,2.760815144
00:00.5,-0.011401736,2.760815144
00:00.5,-0.008152733,2.760815144
00:00.5,0.0046816,2.760815144
00:00.5,0.017751917,2.974949121
00:00.5,0.025144126,2.974949121
00:00.5,0.023632834,2.974949121
00:00.5,0.020978596,2.974949121
00:00.5,0.0220342,2.760815144
00:00.5,0.024925921,2.760815144
00:00.5,0.019342531,2.760815144
00:00.5,0.013207748,2.760815144
00:00.5,-0.006410416,2.974949121
00:00.5,-0.019124417,2.974949121
00:00.5,-0.01739029,2.974949121
00:00.5,-0.024718322,2.974949121
00:00.5,-0.036653724,2.974949121
00:00.5,-0.031993438,2.974949121
00:00.5,-0.026122296,2.974949121
00:00.5,-0.010705973,2.974949121
00:00.5,-0.004046854,2.974949121
00:00.5,0.010204713,2.974949121
00:00.5,0.018807713,2.974949121
00:00.5,0.01852263,2.974949121
00:00.5,0.021560457,2.974949121
00:00.5,0.017136369,2.974949121
00:00.5,0.008311164,2.974949121
00:00.5,0.006391745,2.974949121
00:00.5,0.004272217,2.974949121
00:00.5,-0.002345152,2.974949121
00:00.5,-0.011126133,2.974949121
00:00.5,-0.01585863,2.974949121
00:00.5,-0.0219757,2.760815144
00:00.5,-0.019157967,2.760815144
00:00.5,-0.019800875,2.760815144
00:00.5,-0.017723396,2.760815144
00:00.5,-0.009402676,2.760815144
00:00.5,0.002188636,2.760815144
00:00.5,0.014794169,2.760815144
00:00.5,0.02229899,2.760815144
00:00.5,0.030247165,2.974949121
00:00.5,0.028439123,2.974949121
00:00.5,0.033865355,2.974949121
00:00.5,0.03379729,2.974949121
00:00.5,0.025390582,2.974949121
00:00.5,0.007732638,2.974949121
00:00.5,-0.014221494,2.974949121
00:00.5,-0.023356192,2.974949121
00:00.5,-0.023634914,2.974949121
00:00.5,-0.022709101,2.974949121
00:00.5,-0.025346555,2.974949121
00:00.5,-0.025140122,2.974949121
00:00.5,-0.022879556,2.974949121
00:00.5,-0.010293798,2.974949121
00:00.5,-0.001286407,2.974949121
00:00.5,0.00480035,2.974949121
00:00.5,0.008545143,2.974949121
00:00.5,0.014924151,2.974949121
00:00.5,0.022173628,2.974949121
00:00.5,0.020082358,2.974949121
00:00.5,0.012195673,2.760815144
00:00.5,0.005753417,2.760815144
00:00.5,-0.003818046,2.760815144
00:00.5,-0.014435397,2.760815144
00:00.5,-0.020112345,2.974949121
00:00.5,-0.013069758,2.974949121
00:00.5,-0.01659283,2.974949121
00:00.5,-0.021541405,2.974949121
00:00.5,-0.017652435,2.974949121
00:00.5,-0.008420283,2.974949121
00:00.5,-0.005505456,2.974949121
00:00.5,0.006858124,2.974949121
00:00.5,0.01493553,3.189083338
00:00.5,0.024017144,3.189083338
00:00.5,0.032632373,3.189083338
00:00.5,0.030839983,3.189083338
00:00.5,0.017959448,2.974949121
00:00.5,0.003650561,2.974949121
00:00.5,0.003059551,2.974949121
00:00.5,-0.00260812,2.974949121
00:00.5,-0.001945352,2.974949121
00:00.5,-0.010912456,2.974949121
00:00.5,-0.015916403,2.974949121
00:00.5,-0.022343835,2.974949121
00:00.5,-0.028781276,2.974949121
00:00.5,-0.025311697,2.974949121
00:00.6,-0.015722835,2.974949121
00:00.6,-0.002978584,2.974949121
00:00.6,0.001728639,2.974949121
00:00.6,0.014573508,2.974949121
00:00.6,0.026644344,2.974949121
00:00.6,0.036859035,2.974949121
00:00.6,0.040083475,2.974949121
00:00.6,0.029252617,2.974949121
00:00.6,0.023767749,2.974949121
00:00.6,0.012689888,2.974949121
00:00.6,0.003380081,3.189083338
00:00.6,-0.004180009,3.189083338
00:00.6,-0.0145273,3.189083338
00:00.6,-0.021094844,3.189083338
00:00.6,-0.033517446,3.189083338
00:00.6,-0.039080147,3.189083338
00:00.6,-0.034991033,3.189083338
00:00.6,-0.01595048,3.189083338
00:00.6,-0.002635706,2.974949121
00:00.6,0.006083722,2.974949121
00:00.6,0.006718042,2.974949121
00:00.6,0.006783034,2.974949121
00:00.6,0.01091038,3.403217554
00:00.6,0.021502817,3.403217554
00:00.6,0.025882125,3.403217554
00:00.6,0.016778594,3.403217554
00:00.6,-5.07E-06,3.403217554
00:00.6,-0.011086078,3.403217554
00:00.6,-0.017590204,3.403217554
00:00.6,-0.02051108,3.403217554
00:00.6,-0.029658267,3.189083338
00:00.6,-0.023494214,3.189083338
00:00.6,-0.017113009,3.189083338
00:00.6,-0.01087199,3.189083338
00:00.6,-0.000574855,3.403217554
00:00.6,0.015848367,3.403217554
00:00.6,0.021006443,3.403217554
00:00.6,0.023080569,3.403217554
00:00.6,0.027290381,3.403217554
00:00.6,0.023138503,3.403217554
00:00.6,0.018402804,3.403217554
00:00.6,0.017926116,3.403217554
00:00.6,0.015332482,3.617351532
00:00.6,0.002464334,3.617351532
00:00.6,-0.011169576,3.617351532
00:00.6,-0.019510064,3.617351532
00:00.6,-0.0147314,3.403217554
00:00.6,-0.015624228,3.403217554
00:00.6,-0.024187339,3.403217554
00:00.6,-0.027411984,3.403217554
00:00.6,-0.017762097,3.403217554
00:00.6,-0.009771713,3.403217554
00:00.6,-0.003317225,3.403217554
00:00.6,-0.002736866,3.403217554
00:00.6,0.012193638,3.617351532
00:00.6,0.021045042,3.617351532
00:00.6,0.029635107,3.617351532
00:00.6,0.041399505,3.617351532
00:00.6,0.031135455,3.403217554
00:00.6,0.012341657,3.403217554
00:00.6,0.007659547,3.403217554
00:00.6,-0.001587602,3.403217554
00:00.6,-0.012863521,3.617351532
00:00.6,-0.024282109,3.617351532
00:00.6,-0.03003774,3.617351532
00:00.6,-0.035928,3.617351532
00:00.6,-0.031956229,3.617351532
00:00.6,-0.026328357,3.617351532
00:00.6,-0.010834395,3.617351532
00:00.6,0.000588973,3.617351532
00:00.6,0.013061264,3.617351532
00:00.6,0.024971131,3.617351532
00:00.6,0.030736443,3.617351532
00:00.6,0.036333248,3.617351532
00:00.6,0.031904168,3.617351532
00:00.6,0.021289624,3.617351532
00:00.6,-0.001442901,3.617351532
00:00.6,-0.020661037,3.617351532
00:00.6,-0.017924653,3.617351532
00:00.6,-0.015242565,3.617351532
00:00.6,-0.008182126,3.617351532
00:00.6,-0.021334827,3.617351532
00:00.6,-0.031958848,3.831485748
00:00.6,-0.030697586,3.831485748
00:00.6,-0.017352249,3.831485748
00:00.6,-0.006442906,3.831485748
00:00.6,0.006661985,3.831485748
00:00.6,0.015478428,3.831485748
00:00.6,0.03418497,3.831485748
00:00.6,0.038987685,3.831485748
00:00.6,0.043322053,3.617351532
00:00.6,0.037449766,3.617351532
00:00.6,0.016370919,3.617351532
00:00.6,0.005465109,3.617351532
00:00.6,0.001572599,3.831485748
00:00.6,-0.002282351,3.831485748
00:00.6,-0.010310399,3.831485748
00:00.6,-0.046953149,3.831485748
00:00.6,-0.061477609,3.617351532
00:00.6,-0.051455826,3.617351532
00:00.7,-0.040020879,3.617351532
00:00.7,-0.028115377,3.617351532
00:00.7,-0.012009955,3.617351532
00:00.7,0.001062519,3.617351532
00:00.7,0.002316524,3.617351532
00:00.7,0.005305177,3.617351532
00:00.7,0.018105283,3.617351532
00:00.7,0.013296235,3.617351532
00:00.7,0.011519592,3.617351532
00:00.7,0.020648228,3.617351532
00:00.7,0.026497241,4.045619965
00:00.7,0.016125651,4.045619965
00:00.7,0.014489176,4.045619965
00:00.7,0.013698527,4.045619965
00:00.7,0.01332925,3.831485748
00:00.7,0.017547159,3.831485748
00:00.7,0.010532011,3.831485748
00:00.7,0.00605857,3.831485748
00:00.7,0.012361923,3.831485748
00:00.7,0.020005193,3.831485748
00:00.7,0.005105778,3.831485748
00:00.7,-0.00895852,3.831485748
00:00.7,-0.007800076,3.831485748
00:00.7,0.007062089,3.831485748
00:00.7,0.060110442,3.831485748
00:00.7,0.090620391,3.831485748
00:00.7,0.076454394,3.831485748
00:00.7,0.052885897,3.831485748
00:00.7,0.029122731,3.831485748
00:00.7,0.011078988,3.831485748
00:00.7,-0.011336506,3.831485748
00:00.7,-0.039126664,3.831485748
00:00.7,-0.067559958,3.831485748
00:00.7,-0.07984601,3.831485748
00:00.7,-0.071404092,3.831485748
00:00.7,-0.059202168,3.831485748
00:00.7,-0.036147211,3.831485748
00:00.7,-0.021488164,3.831485748
00:00.7,-0.030867547,3.831485748
00:00.7,-0.035778385,3.831485748
00:00.7,-0.019115102,3.831485748
00:00.7,-0.026199618,3.831485748
00:00.7,-0.04670516,4.045619965
00:00.7,-0.045997869,4.045619965
00:00.7,-0.040550772,4.045619965
00:00.7,-0.036401067,4.045619965
00:00.7,-0.028193997,4.045619965
00:00.7,-0.013098108,4.045619965
00:00.7,-0.003590662,4.045619965
00:00.7,0.010973617,4.045619965
00:00.7,0.031975847,4.045619965
00:00.7,0.054914843,4.045619965
00:00.7,0.054166697,4.045619965
00:00.7,0.025091663,4.045619965
00:00.7,0.012434024,4.045619965
00:00.7,0.024316873,4.045619965
00:00.7,0.045456294,4.045619965
00:00.7,0.056439564,4.045619965
00:00.7,0.064005107,4.259754181
00:00.7,0.054526191,4.259754181
00:00.7,0.025737256,4.259754181
00:00.7,0.00514165,4.259754181
00:00.7,-0.013294317,4.259754181
00:00.7,-0.015313219,4.259754181
00:00.7,-0.002571642,4.259754181
00:00.7,-0.00438058,4.259754181
00:00.7,-0.037313599,4.259754181
00:00.7,-0.050138906,4.259754181
00:00.7,-0.022094153,4.259754181
00:00.7,0.010814252,4.259754181
00:00.7,0.007854457,4.47388792
00:00.7,0.009973094,4.47388792
00:00.7,0.014854586,4.47388792
00:00.7,0.020762125,4.47388792
00:00.7,0.030918751,4.47388792
00:00.7,0.02886934,4.47388792
00:00.7,0.00117961,4.47388792
00:00.7,-0.017479397,4.47388792
00:00.7,-0.033312954,4.47388792
00:00.7,-0.027769931,4.47388792
00:00.7,-0.018295029,4.47388792
00:00.7,-0.029404664,4.47388792
00:00.7,-0.051709291,4.902156353
00:00.7,-0.028962152,4.902156353
00:00.7,-0.002628609,4.902156353
00:00.7,0.01473492,4.902156353
00:00.7,0.024965301,4.902156353
00:00.7,0.025191631,4.902156353
00:00.7,0.010051941,4.902156353
00:00.7,0.004649243,4.902156353
00:00.7,-0.003317926,4.902156353
00:00.7,-0.003142568,4.902156353
00:00.7,0.015459936,4.902156353
00:00.7,0.030049941,4.902156353
00:00.7,0.009183371,4.902156353
00:00.7,-0.018215461,4.902156353
00:00.7,-0.033537347,4.902156353
00:00.7,-0.021794379,4.902156353
00:00.7,-0.007669064,5.116290569
00:00.7,-0.01555801,5.116290569
00:00.8,-0.013571301,5.116290569
00:00.8,0.021341652,5.116290569
00:00.8,0.05961787,5.330424786
00:00.8,0.064475477,5.330424786
00:00.8,0.029717034,5.330424786
00:00.8,0.018092163,5.330424786
00:00.8,-0.005551653,5.544558525
00:00.8,-0.02105982,5.544558525
00:00.8,-0.025573466,5.544558525
00:00.8,-0.02718387,5.544558525
00:00.8,-0.022099508,5.758692741
00:00.8,-0.030999141,5.758692741
00:00.8,-0.051706064,5.758692741
00:00.8,-0.054698303,5.758692741
00:00.8,-0.036847562,5.758692741
00:00.8,-0.020644723,5.758692741
00:00.8,0.00249367,5.758692741
00:00.8,0.027950509,5.758692741
00:00.8,0.025520828,5.972826958
00:00.8,0.037372869,5.972826958
00:00.8,0.069908351,5.972826958
00:00.8,0.075528525,5.972826958
00:00.8,0.045303587,6.40109539
00:00.8,0.026492914,6.40109539
00:00.8,0.015851855,6.40109539
00:00.8,0.010793102,6.40109539
00:00.8,-0.017531684,6.40109539
00:00.8,-0.052988704,6.40109539
00:00.8,-0.066702515,6.40109539
00:00.8,-0.051677689,6.40109539
00:00.8,-0.006340322,6.61522913
00:00.8,-0.004536097,6.61522913
00:00.8,-0.024902321,6.61522913
00:00.8,-0.002957497,6.61522913
00:00.8,0.034030754,6.829363346
00:00.8,0.045213994,6.829363346
00:00.8,0.056941167,6.829363346
00:00.8,0.049275756,6.829363346
00:00.8,0.025232803,7.043497562
00:00.8,0.006276519,7.043497562
00:00.8,-0.026001703,7.043497562
00:00.8,-0.058861773,7.043497562
00:00.8,-0.079523325,7.257631779
00:00.8,-0.05409864,7.257631779
00:00.8,-0.01545014,7.257631779
00:00.8,-0.007652096,7.257631779
00:00.8,-0.028135236,7.685900211
00:00.8,-0.027814832,7.685900211
00:00.8,-0.009846933,7.685900211
00:00.8,0.004167595,7.685900211
00:00.8,0.01462186,7.900033951
00:00.8,0.0308662,7.900033951
00:00.8,0.017616391,7.900033951
00:00.8,0.005286952,7.900033951
00:00.8,0.016988676,8.328302383
00:00.8,0.033230036,8.328302383
00:00.8,0.054878991,8.328302383
00:00.8,0.077181563,8.328302383
00:00.8,0.065517515,8.756570816
00:00.8,0.015268323,8.756570816
00:00.8,-0.023144472,8.756570816
00:00.8,-0.023945913,8.756570816
00:00.8,-0.019421108,9.398973465
00:00.8,-0.002967433,9.398973465
00:00.8,-0.021003684,9.398973465
00:00.8,-0.049369201,9.398973465
00:00.8,-0.058568865,9.827240944
00:00.8,-0.050007585,9.827240944
00:00.8,-0.039595693,9.827240944
00:00.8,-0.014950246,9.827240944
00:00.8,0.038864404,10.46964359
00:00.8,0.069521531,10.46964359
00:00.8,0.046671979,10.46964359
00:00.8,0.028328203,10.46964359
00:00.8,0.027359435,11.11204624
00:00.8,0.050062343,11.11204624
00:00.8,0.03971184,11.11204624
00:00.8,-0.030820712,11.11204624
00:00.8,-0.060036018,11.54031467
00:00.8,-0.069684967,11.54031467
00:00.8,-0.079065643,11.54031467
00:00.8,-0.077429995,11.54031467
00:00.8,-0.054668501,12.39685059
00:00.8,-0.033550993,12.39685059
00:00.8,-0.00124368,12.39685059
00:00.8,0.021855189,12.39685059
00:00.8,0.028264446,12.82511902
00:00.8,0.041617017,12.82511902
00:00.8,0.062098514,12.82511902
00:00.8,0.070979923,12.82511902
00:00.8,0.075557932,13.68165588
00:00.8,0.076065183,13.68165588
00:00.8,0.063981354,13.68165588
00:00.8,0.035315283,13.68165588
00:00.8,0.002849939,14.5381918
00:00.8,-0.024859603,14.5381918
00:00.8,-0.029220691,14.5381918
00:00.8,-0.036641911,14.5381918
00:00.8,-0.049429808,15.18059444
00:00.8,-0.045947123,15.18059444
00:00.9,-0.02784262,15.18059444
00:00.9,-0.011040546,15.18059444
00:00.9,-0.018764434,15.82299709
00:00.9,-0.027125698,15.82299709
00:00.9,-0.039232813,15.82299709
00:00.9,-0.038572215,15.82299709
00:00.9,-0.020638483,16.679533
00:00.9,-0.002310375,16.679533
00:00.9,0.014781724,16.679533
00:00.9,0.056344952,16.679533
00:00.9,0.095070295,17.53606987
00:00.9,0.078178383,17.53606987
00:00.9,0.009828125,17.53606987
00:00.9,-0.043875787,17.53606987
00:00.9,-0.020790707,18.17847252
00:00.9,-0.010799127,18.17847252
00:00.9,-0.03643271,18.17847252
00:00.9,-0.031907126,18.17847252
00:00.9,-0.017890796,19.03500938
00:00.9,-0.030363346,19.03500938
00:00.9,-0.044035226,19.03500938
00:00.9,-0.038669653,19.03500938
00:00.9,-0.021518923,20.10567856
00:00.9,0.015155904,20.10567856
00:00.9,0.033619326,20.10567856
00:00.9,0.021124605,20.10567856
00:00.9,0.021963241,20.96221542
00:00.9,0.026189892,20.96221542
00:00.9,0.027350981,20.96221542
00:00.9,0.003852816,20.96221542
00:00.9,-0.010287724,21.81875229
00:00.9,-0.003885314,21.81875229
00:00.9,0.001157565,21.81875229
00:00.9,0.022821058,21.81875229
00:00.9,0.034536038,22.88942337
00:00.9,0.034194704,22.88942337
00:00.9,0.034965903,22.88942337
00:00.9,0.049216952,22.88942337
00:00.9,0.033886742,23.96009445
00:00.9,-0.003224222,23.96009445
00:00.9,-0.01469865,23.96009445
00:00.9,-0.036299791,23.96009445
00:00.9,-0.057351727,24.60249519
00:00.9,-0.093413703,24.60249519
00:00.9,-0.116327055,24.60249519
00:00.9,-0.118602194,24.60249519
00:00.9,-0.052644569,26.10143471
00:00.9,0.027735582,26.10143471
00:00.9,0.05604874,26.10143471
00:00.9,0.049566083,26.10143471
00:00.9,0.048787031,26.95797157
00:00.9,0.104717925,26.95797157
00:00.9,0.14427267,26.95797157
00:00.9,0.141520157,26.95797157
00:00.9,0.097698875,28.24277687
00:00.9,0.035565488,28.24277687
00:00.9,0.007170528,28.24277687
00:00.9,-0.003062364,28.24277687
00:00.9,-0.019537678,29.74171448
00:00.9,-0.042956501,29.74171448
00:00.9,-0.077257648,29.74171448
00:00.9,-0.132303804,29.74171448
00:00.9,-0.135427266,31.02651978
00:00.9,-0.086944498,31.02651978
00:00.9,-0.036883082,31.02651978
00:00.9,-0.052299101,31.02651978
00:00.9,-0.127819613,32.52545929
00:00.9,-0.168774322,32.52545929
00:00.9,-0.101861708,32.52545929
00:00.9,0.013430286,32.52545929
00:00.9,0.117105678,34.0243988
00:00.9,0.19895044,34.0243988
00:00.9,0.195301086,34.0243988
00:00.9,0.177578881,34.0243988
00:00.9,0.18621932,35.95160294
00:00.9,0.22985518,35.95160294
00:00.9,0.184667692,35.95160294
00:00.9,0.045950439,35.95160294
00:00.9,-0.107584506,37.87881088
00:00.9,-0.170837954,37.87881088
00:00.9,-0.144817039,37.87881088
00:00.9,-0.154512703,37.87881088
00:00.9,-0.187831551,40.44842148
00:00.9,-0.181022659,40.44842148
00:00.9,-0.156762987,40.44842148
00:00.9,-0.144016951,40.44842148
00:00.9,-0.123695426,42.80389786
00:00.9,-0.116251424,42.80389786
00:00.9,-0.182187185,42.80389786
00:00.9,-0.163105637,42.80389786
00:00.9,-0.014653871,46.01590729
00:00.9,0.111426331,46.01590729
00:00.9,0.113814361,46.01590729
00:00.9,0.129291728,46.01590729
00:00.9,0.221992776,49.22792053
00:00.9,0.315492034,49.22792053
00:00.9,0.30789426,49.22792053
00:00.9,0.257547021,49.22792053
00:00.9,0.244502619,52.65406799
00:00.9,0.19352302,52.65406799
00:01.0,0.017796269,52.65406799
00:01.0,-0.018322235,52.65406799
00:01.0,-0.060459413,56.50848007
00:01.0,-0.15168035,56.50848007
00:01.0,-0.120338961,56.50848007
00:01.0,-0.091902383,56.50848007
00:01.0,-0.062508158,61.00529861
00:01.0,-0.074907333,61.00529861
00:01.0,-0.061829451,61.00529861
00:01.0,-0.073995836,61.00529861
00:01.0,-0.11307241,65.71624756
00:01.0,-0.190482631,65.71624756
00:01.0,-0.192363665,65.71624756
00:01.0,-0.1764182,65.71624756
00:01.0,-0.228670582,70.85546875
00:01.0,-0.162185341,70.85546875
00:01.0,-0.061865654,70.85546875
00:01.0,0.132466838,70.85546875
00:01.0,0.379505754,76.42295837
00:01.0,0.462491393,76.42295837
00:01.0,0.382870942,76.42295837
00:01.0,0.281817466,76.42295837
00:01.0,0.185846314,82.20457458
00:01.0,0.058084514,82.20457458
00:01.0,-0.088277973,82.20457458
00:01.0,-0.174506992,82.20457458
00:01.0,-0.165545776,88.41446686
00:01.0,-0.066291809,88.41446686
00:01.0,-0.000746489,88.41446686
00:01.0,-0.069282837,88.41446686
00:01.0,-0.132526129,95.05261993
00:01.0,-0.194332749,95.05261993
00:01.0,-0.318794161,95.05261993
00:01.0,-0.331889153,95.05261993
00:01.0,-0.199373305,101.4766464
00:01.0,-0.147281557,101.4766464
00:01.0,-0.213090569,101.4766464
00:01.0,-0.157761589,101.4766464
00:01.0,-0.02552003,108.3289413
00:01.0,0.148124427,108.3289413
00:01.0,0.558989644,108.3289413
00:01.0,0.794486463,108.3289413
00:01.0,0.712869227,115.6094971
00:01.0,0.519928455,115.6094971
00:01.0,0.415753365,115.6094971
00:01.0,0.350100219,115.6094971
00:01.0,0.204408333,123.1041946
00:01.0,0.06261611,123.1041946
00:01.0,-0.080747008,123.1041946
00:01.0,-0.115190268,123.1041946
0:00:01,-0.058395334,130.5988922
00:01.0,-0.050659407,130.5988922
00:01.0,-0.124142163,130.5988922
00:01.0,-0.205239892,130.5988922
00:01.0,-0.528769016,138.307724
00:01.0,-0.657453418,138.307724
00:01.0,-0.665733755,138.307724
00:01.0,-0.716302752,138.307724
00:01.0,-0.657459974,146.2306824
00:01.0,-0.451126456,146.2306824
00:01.0,-0.348682821,146.2306824
00:01.0,-0.209182382,146.2306824
00:01.0,-0.121343948,154.5819092
00:01.0,-0.041849673,154.5819092
00:01.0,0.095753215,154.5819092
00:01.0,0.213235378,154.5819092
00:01.0,0.312089592,162.290741
00:01.0,0.370952368,162.290741
00:01.0,0.365801215,162.290741
00:01.0,0.38572681,162.290741
00:01.0,0.357062995,169.9995728
00:01.0,0.341999978,169.9995728
00:01.0,0.18489483,169.9995728
00:01.0,0.077915318,169.9995728
00:01.0,0.090509102,177.9225311
00:01.0,0.111115992,177.9225311
00:01.0,0.159957543,177.9225311
00:01.0,0.304206669,177.9225311
00:01.0,0.243382856,185.2030945
00:01.0,0.08107049,185.2030945
00:01.0,0.003311005,185.2030945
00:01.0,0.072449788,185.2030945
00:01.0,0.196280316,192.6977844
00:01.0,0.204557091,192.6977844
00:01.0,0.106141344,192.6977844
00:01.0,-0.109738827,192.6977844
00:01.0,-0.226200938,199.9783478
00:01.0,-0.261030346,199.9783478
00:01.0,-0.316589981,199.9783478
00:01.0,-0.38096863,199.9783478
00:01.0,-0.359955937,206.8306427
00:01.0,-0.275074869,206.8306427
00:01.0,-0.226437315,206.8306427
00:01.0,-0.209743276,206.8306427
00:01.0,-0.040689632,213.4687958
00:01.0,0.136136383,213.4687958
00:01.0,0.005817849,213.4687958
00:01.0,-0.183596104,213.4687958
00:01.0,-0.102899924,220.1069489
00:01.0,0.048375364,220.1069489
00:01.1,0.037313141,220.1069489
00:01.1,-0.02678176,220.1069489
00:01.1,-0.009016251,226.3168488
00:01.1,0.15205355,226.3168488
00:01.1,0.277784973,226.3168488
00:01.1,0.349787712,226.3168488
00:01.1,0.351400435,232.74086
00:01.1,0.215746373,232.74086
00:01.1,0.058798537,232.74086
00:01.1,-0.013496223,232.74086
00:01.1,-0.023523271,238.5224915
00:01.1,0.014134361,238.5224915
00:01.1,-0.008055886,238.5224915
00:01.1,-0.047297329,238.5224915
00:01.1,0.045322616,244.0899811
00:01.1,0.195745647,244.0899811
00:01.1,0.168182507,244.0899811
00:01.1,0.094011806,244.0899811
00:01.1,0.01373586,249.6574707
00:01.1,-0.046360482,249.6574707
00:01.1,-0.098035082,249.6574707
00:01.1,-0.090333164,249.6574707
00:01.1,-0.055558365,255.0108185
00:01.1,-0.096709326,255.0108185
00:01.1,-0.117278695,255.0108185
00:01.1,-0.198397413,255.0108185
00:01.1,-0.445570797,259.9359131
00:01.1,-0.506913722,259.9359131
00:01.1,-0.384022623,259.9359131
00:01.1,-0.30558762,259.9359131
00:01.1,-0.238077685,264.6468506
00:01.1,-0.098081209,264.6468506
00:01.1,0.268961281,264.6468506
00:01.1,0.543272734,264.6468506
00:01.1,0.520400465,269.1436768
00:01.1,0.316336304,269.1436768
00:01.1,0.208093271,269.1436768
00:01.1,0.174139977,269.1436768
00:01.1,0.141331047,274.0687561
00:01.1,0.118837975,274.0687561
00:01.1,-0.076270893,274.0687561
00:01.1,-0.287376881,274.0687561
00:01.1,-0.342910767,278.3514404
00:01.1,-0.289510518,278.3514404
00:01.1,-0.138908491,278.3514404
00:01.1,0.010818914,278.3514404
00:01.1,0.249957889,282.2058411
00:01.1,0.416700959,282.2058411
00:01.1,0.393793553,282.2058411
00:01.1,0.077236302,282.2058411
00:01.1,-0.052203696,286.4885254
00:01.1,0.056040999,286.4885254
00:01.1,0.079404369,286.4885254
00:01.1,-0.019864667,286.4885254
00:01.1,-0.10954313,290.1288147
00:01.1,-0.18003659,290.1288147
00:01.1,-0.297648191,290.1288147
00:01.1,-0.344850034,290.1288147
00:01.1,-0.19707869,293.9832153
00:01.1,0.010424538,293.9832153
00:01.1,0.160284594,293.9832153
00:01.1,0.179418311,293.9832153
00:01.1,0.155127749,297.6235046
00:01.1,0.140261501,297.6235046
00:01.1,0.090290152,297.6235046
00:01.1,-0.063011199,297.6235046
00:01.1,-0.157826036,301.2637939
00:01.1,-0.032125846,301.2637939
00:01.1,0.083321139,301.2637939
00:01.1,0.069329284,301.2637939
00:01.1,0.03465401,304.6899414
00:01.1,0.137363702,304.6899414
00:01.1,0.138378933,304.6899414
00:01.1,0.025816698,304.6899414
00:01.1,-0.106639825,307.901947
00:01.1,-0.220577508,307.901947
00:01.1,-0.203092292,307.901947
00:01.1,-0.068499908,307.901947
00:01.1,0.001431525,310.8998108
00:01.1,-0.059179328,310.8998108
00:01.1,-0.175275117,310.8998108
00:01.1,-0.254195213,310.8998108
00:01.1,-0.22799705,313.8977051
00:01.1,-0.198788047,313.8977051
00:01.1,-0.072865918,313.8977051
00:01.1,0.000111314,313.8977051
00:01.1,0.200808764,316.8955688
00:01.1,0.410789788,316.8955688
00:01.1,0.51358217,316.8955688
00:01.1,0.526260316,316.8955688
00:01.1,0.395040542,319.6793213
00:01.1,0.262127936,319.6793213
00:01.1,0.144397289,319.6793213
00:01.1,-0.104322128,319.6793213
00:01.1,-0.290072411,322.03479
00:01.1,-0.404674262,322.03479
00:01.1,-0.447591931,322.03479
00:01.1,-0.352342397,322.03479
00:01.1,-0.167500392,324.8185425
00:01.1,-0.05807893,324.8185425
00:01.2,0.023614703,324.8185425
00:01.2,0.014204426,324.8185425
00:01.2,-0.06314072,327.3881531
00:01.2,-0.070932865,327.3881531
00:01.2,0.059810776,327.3881531
00:01.2,0.133599579,327.3881531
00:01.2,0.191553831,329.52948
00:01.2,0.272667527,329.52948
00:01.2,0.285602003,329.52948
00:01.2,0.278568208,329.52948
00:01.2,0.03221171,331.8849792
00:01.2,-0.236597508,331.8849792
00:01.2,-0.157285973,331.8849792
00:01.2,0.097946733,331.8849792
00:01.2,0.056214347,334.0263062
00:01.2,-0.097201169,334.0263062
00:01.2,-0.134350345,334.0263062
00:01.2,-0.109106384,334.0263062
00:01.2,-0.060124908,336.1676636
00:01.2,-0.00474286,336.1676636
00:01.2,-0.039767843,336.1676636
00:01.2,-0.153180182,336.1676636
00:01.2,-0.18599169,337.8807373
00:01.2,-0.105821759,337.8807373
00:01.2,-0.082712032,337.8807373
00:01.2,-0.027833628,337.8807373
00:01.2,0.10060405,339.8079224
00:01.2,0.105219215,339.8079224
00:01.2,0.10884653,339.8079224
00:01.2,0.070167117,339.8079224
00:01.2,0.00838181,341.3068848
00:01.2,0.090065755,341.3068848
00:01.2,0.152644619,341.3068848
00:01.2,0.093136206,341.3068848
00:01.2,-0.050384764,343.019928
00:01.2,-0.106710523,343.019928
00:01.2,-0.081074953,343.019928
00:01.2,0.011317712,343.019928
00:01.2,0.158523798,344.5188904
00:01.2,0.230086729,344.5188904
00:01.2,0.268187732,344.5188904
00:01.2,0.291859031,344.5188904
00:01.2,0.165866002,346.0178223
00:01.2,-0.123944603,346.0178223
00:01.2,-0.272721827,346.0178223
00:01.2,-0.261197954,346.0178223
00:01.2,-0.208001688,347.5167542
00:01.2,-0.216566131,347.5167542
00:01.2,-0.183264613,347.5167542
00:01.2,-0.142688185,347.5167542
00:01.2,-0.112508848,348.8015747
00:01.2,-0.026857801,348.8015747
00:01.2,0.018816892,348.8015747
00:01.2,0.000490594,348.8015747
00:01.2,-0.054809362,350.0863647
00:01.2,-0.068407252,350.0863647
00:01.2,-0.009149003,350.0863647
00:01.2,0.107929938,350.0863647
00:01.2,0.262429446,351.3711853
00:01.2,0.320080012,351.3711853
00:01.2,0.166223824,351.3711853
00:01.2,0.05997571,351.3711853
00:01.2,0.098476201,352.2277222
00:01.2,0.139783502,352.2277222
00:01.2,0.087377273,352.2277222
00:01.2,-0.019331638,352.2277222
00:01.2,-0.033819683,353.5125122
00:01.2,-0.098164104,353.5125122
00:01.2,-0.249041483,353.5125122
00:01.2,-0.074220441,353.5125122
00:01.2,0.011961088,354.3690491
00:01.2,-0.08915133,354.3690491
00:01.2,-0.097833067,354.3690491
00:01.2,-0.15087387,354.3690491
00:01.2,-0.224179938,355.4397278
00:01.2,-0.179359004,355.4397278
00:01.2,-0.08589261,355.4397278
00:01.2,0.003889729,355.4397278
00:01.2,0.075097807,356.0821228
00:01.2,0.172958732,356.0821228
00:01.2,0.200571746,356.0821228
00:01.2,0.140238762,356.0821228
00:01.2,0.05667492,357.1528015
00:01.2,-0.119305067,357.1528015
00:01.2,-0.262863547,357.1528015
00:01.2,-0.200204551,357.1528015
00:01.2,-0.130310312,357.7951965
00:01.2,0.038534429,357.7951965
00:01.2,0.369207859,357.7951965
00:01.2,0.57707423,357.7951965
00:01.2,0.491569996,358.4375916
00:01.2,0.236455441,358.4375916
00:01.2,-0.094593227,358.4375916
00:01.2,-0.276811808,358.4375916
00:01.2,-0.313263714,359.2941284
00:01.2,-0.240361273,359.2941284
00:01.2,-0.148879126,359.2941284
00:01.2,-0.19080469,359.2941284
00:01.2,-0.303265095,359.7224121
00:01.2,-0.287843287,359.7224121
00:01.3,-0.141988695,359.7224121
00:01.3,0.100173652,359.7224121
00:01.3,0.31215167,360.3648071
00:01.3,0.24200809,360.3648071
00:01.3,0.132772401,360.3648071
00:01.3,0.200159669,360.3648071
00:01.3,0.214829847,360.578949
00:01.3,-0.003660339,360.578949
00:01.3,-0.188727155,360.578949
00:01.3,-0.146730885,360.578949
00:01.3,-0.003587356,360.7930603
00:01.3,0.130646631,360.7930603
00:01.3,0.281613052,360.7930603
00:01.3,0.438910484,360.7930603
00:01.3,0.347267866,361.221344
00:01.3,0.240426913,361.221344
00:01.3,0.017668292,361.221344
00:01.3,-0.105566002,361.221344
00:01.3,-0.103273794,361.221344
00:01.3,-0.109273478,361.221344
00:01.3,-0.173045278,361.221344
00:01.3,-0.251605421,361.221344
00:01.3,-0.374262005,361.221344
00:01.3,-0.459151357,361.221344
00:01.3,-0.306092858,361.221344
00:01.3,-0.057123549,361.221344
00:01.3,-0.020760836,361.4354858
00:01.3,-0.040513892,361.4354858
00:01.3,-0.028967837,361.4354858
00:01.3,-0.020605173,361.4354858
00:01.3,-0.0899342,361.0072021
00:01.3,-0.073361062,361.0072021
00:01.3,0.027322566,361.0072021
00:01.3,0.036797412,361.0072021
00:01.3,0.244958818,361.0072021
00:01.3,0.531012535,361.0072021
00:01.3,0.532886505,361.0072021
00:01.3,0.411926895,361.0072021
00:01.3,0.184813052,361.0072021
00:01.3,0.030378828,361.0072021
00:01.3,0.071173877,361.0072021
00:01.3,0.082385682,361.0072021
00:01.3,-0.030596707,361.0072021
00:01.3,-0.214650288,361.0072021
00:01.3,-0.352442473,361.0072021
00:01.3,-0.302800924,361.0072021
00:01.3,-0.305041075,360.7930603
00:01.3,-0.406433702,360.7930603
00:01.3,-0.410707206,360.7930603
00:01.3,-0.353748828,360.7930603
00:01.3,-0.142573968,360.7930603
00:01.3,0.0889396,360.7930603
00:01.3,0.245251834,360.7930603
00:01.3,0.326128244,360.7930603
00:01.3,0.368072331,360.578949
00:01.3,0.373574495,360.578949
00:01.3,0.23070693,360.578949
00:01.3,0.0468865,360.578949
00:01.3,-0.084001258,360.578949
00:01.3,-0.094172299,360.578949
00:01.3,-0.077944398,360.578949
00:01.3,-0.135619149,360.578949
00:01.3,-0.240508512,360.578949
00:01.3,-0.321354926,360.578949
00:01.3,-0.250487,360.578949
00:01.3,-0.044587448,360.578949
00:01.3,0.052476373,360.578949
00:01.3,0.087984182,360.578949
00:01.3,0.104677156,360.578949
00:01.3,0.165773898,360.578949
00:01.3,0.242380053,360.3648071
00:01.3,0.144353926,360.3648071
00:01.3,-0.053378556,360.3648071
00:01.3,-0.029829275,360.3648071
00:01.3,0.12276002,360.1506653
00:01.3,0.280866504,360.1506653
00:01.3,0.276860058,360.1506653
00:01.3,0.326621175,360.1506653
00:01.3,0.32371372,360.1506653
00:01.3,0.194140732,360.1506653
00:01.3,-0.009594464,360.1506653
00:01.3,-0.24175173,360.1506653
00:01.3,-0.343475759,360.1506653
00:01.3,-0.339512765,360.1506653
00:01.3,-0.321149319,360.1506653
00:01.3,-0.264836162,360.1506653
00:01.3,-0.218150854,359.9365234
00:01.3,-0.102360159,359.9365234
00:01.3,-0.078117341,359.9365234
00:01.3,-0.052284002,359.9365234
00:01.3,-0.013126035,360.1506653
00:01.3,0.004608152,360.1506653
00:01.3,0.026087742,360.1506653
00:01.3,0.110755481,360.1506653
00:01.3,0.024298197,359.7224121
00:01.3,-0.056006994,359.7224121
00:01.3,0.117211834,359.7224121
00:01.3,0.205112472,359.7224121
00:01.3,0.096499778,359.7224121
00:01.3,0.059701584,359.7224121
00:01.4,0.105021089,359.7224121
00:01.4,0.056389637,359.7224121
00:01.4,0.065611497,359.5082703
00:01.4,0.112734318,359.5082703
00:01.4,0.177018493,359.5082703
00:01.4,0.180681497,359.5082703
00:01.4,0.126109719,359.2941284
00:01.4,0.060751915,359.2941284
00:01.4,-0.015984599,359.2941284
00:01.4,-0.191871837,359.2941284
00:01.4,-0.321452558,359.0800171
00:01.4,-0.385125041,359.0800171
00:01.4,-0.460534424,359.0800171
00:01.4,-0.39142096,359.0800171
00:01.4,-0.247746781,359.0800171
00:01.4,-0.071507946,359.0800171
00:01.4,0.169168785,359.0800171
00:01.4,0.247798011,359.0800171
00:01.4,0.209161937,358.8658752
00:01.4,0.256746024,358.8658752
00:01.4,0.179866061,358.8658752
00:01.4,0.013782419,358.8658752
00:01.4,-0.10262607,358.6517334
00:01.4,-0.118692517,358.6517334
00:01.4,0.019212637,358.6517334
00:01.4,0.198692322,358.6517334
00:01.4,0.273394316,358.6517334
00:01.4,0.349839479,358.6517334
00:01.4,0.393217355,358.6517334
00:01.4,0.245667115,358.6517334
00:01.4,0.008276554,358.4375916
00:01.4,-0.241744176,358.4375916
00:01.4,-0.43033573,358.4375916
00:01.4,-0.403127789,358.4375916
00:01.4,-0.232557014,358.4375916
00:01.4,-0.12956652,358.4375916
00:01.4,-0.066107213,358.4375916
00:01.4,0.022426205,358.4375916
00:01.4,-0.033575267,358.4375916
00:01.4,-0.136274129,358.4375916
00:01.4,-0.081731349,358.4375916
00:01.4,0.079004884,358.4375916
00:01.4,0.195881233,358.4375916
00:01.4,0.179494902,358.4375916
00:01.4,0.134690508,358.4375916
00:01.4,0.307286948,358.4375916
00:01.4,0.347112209,358.4375916
00:01.4,0.09156727,358.4375916
00:01.4,-0.122304507,358.4375916
00:01.4,-0.035921741,358.4375916
00:01.4,-0.02888554,358.4375916
00:01.4,-0.17394416,358.4375916
00:01.4,-0.200395375,358.4375916
00:01.4,-0.122876495,358.4375916
00:01.4,-0.15269579,358.4375916
00:01.4,-0.225470498,358.4375916
00:01.4,-0.127016559,358.4375916
00:01.4,-0.051431827,358.4375916
00:01.4,-0.017739195,358.4375916
00:01.4,0.03729637,358.4375916
00:01.4,0.060221564,358.4375916
00:01.4,0.03431708,358.4375916
00:01.4,0.034494318,358.4375916
00:01.4,0.175668895,358.4375916
00:01.4,0.24968648,358.4375916
00:01.4,0.1118837,358.4375916
00:01.4,0.043171797,358.4375916
00:01.4,0.013022612,358.4375916
00:01.4,-0.022614794,358.4375916
00:01.4,-0.044957981,358.4375916
00:01.4,-0.038920302,358.6517334
00:01.4,0.028972341,358.6517334
00:01.4,0.110162809,358.6517334
00:01.4,0.181615353,358.6517334
00:01.4,0.112789758,358.6517334
00:01.4,-0.198535219,358.6517334
00:01.4,-0.377681941,358.6517334
00:01.4,-0.365940988,358.6517334
00:01.4,-0.242595389,358.4375916
00:01.4,-0.170147553,358.4375916
00:01.4,-0.123323329,358.4375916
00:01.4,0.04477068,358.4375916
00:01.4,0.138102576,358.6517334
00:01.4,0.256914824,358.6517334
00:01.4,0.395771056,358.6517334
00:01.4,0.462447584,358.6517334
00:01.4,0.311852753,358.8658752
00:01.4,0.15354903,358.8658752
00:01.4,-0.011619383,358.8658752
00:01.4,-0.149103791,358.8658752
00:01.4,-0.148944691,359.0800171
00:01.4,-0.184126914,359.0800171
00:01.4,-0.240239471,359.0800171
00:01.4,-0.211772814,359.0800171
00:01.4,-0.13587746,359.0800171
00:01.4,-0.093941934,359.0800171
00:01.4,-0.070484683,359.0800171
00:01.4,-0.014400682,359.0800171
00:01.4,0.066137671,359.2941284
00:01.4,0.05556431,359.2941284
00:01.5,0.016695065,359.2941284
00:01.5,-0.035947144,359.2941284
00:01.5,-0.113915905,359.5082703
00:01.5,-0.167248398,359.5082703
00:01.5,0.056768484,359.5082703
00:01.5,0.443395376,359.5082703
00:01.5,0.553985,359.7224121
00:01.5,0.371335447,359.7224121
00:01.5,0.145488545,359.7224121
00:01.5,-0.040316023,359.7224121
00:01.5,-0.181111231,359.9365234
00:01.5,-0.280356407,359.9365234
00:01.5,-0.252889067,359.9365234
00:01.5,-0.335288167,359.9365234
00:01.5,-0.401512176,360.1506653
00:01.5,-0.222784132,360.1506653
00:01.5,-0.036492247,360.1506653
00:01.5,0.072003268,360.1506653
00:01.5,0.172293156,360.1506653
00:01.5,0.297197312,360.1506653
00:01.5,0.18546541,360.1506653
00:01.5,-0.054204803,360.1506653
00:01.5,-0.108454652,360.578949
00:01.5,0.010558574,360.578949
00:01.5,0.108567901,360.578949
00:01.5,0.107711308,360.578949
00:01.5,0.197171047,360.7930603
00:01.5,0.250580877,360.7930603
00:01.5,0.121526465,360.7930603
00:01.5,0.037936036,360.7930603
00:01.5,0.001824977,361.0072021
00:01.5,0.059841972,361.0072021
00:01.5,0.061393805,361.0072021
00:01.5,-0.192295879,361.0072021
00:01.5,-0.420878351,361.221344
00:01.5,-0.51914382,361.221344
00:01.5,-0.387963921,361.221344
00:01.5,-0.118178084,361.221344
00:01.5,0.156494573,361.4354858
00:01.5,0.247474059,361.4354858
00:01.5,0.219981775,361.4354858
00:01.5,0.128979221,361.4354858
00:01.5,0.086243942,362.0778809
00:01.5,0.066767044,362.0778809
00:01.5,0.053393491,362.0778809
00:01.5,-0.036311805,362.0778809
00:01.5,-0.132928655,362.0778809
00:01.5,-0.125024259,362.0778809
00:01.5,-0.034317065,362.0778809
00:01.5,0.050375637,362.0778809
00:01.5,0.092112616,362.506134
00:01.5,0.107302994,362.506134
00:01.5,0.143793076,362.506134
00:01.5,0.138869122,362.506134
00:01.5,0.138328791,362.9344177
00:01.5,-0.004757688,362.9344177
00:01.5,-0.124145217,362.9344177
00:01.5,-0.05619723,362.9344177
00:01.5,0.031137655,363.1485596
00:01.5,0.027976584,363.1485596
00:01.5,-0.035285067,363.1485596
00:01.5,-0.133898929,363.1485596
00:01.5,-0.203504637,363.3626709
00:01.5,-0.335953832,363.3626709
00:01.5,-0.333798468,363.3626709
00:01.5,-0.182048798,363.3626709
00:01.5,0.13573496,363.7909546
00:01.5,0.396009147,363.7909546
00:01.5,0.405558437,363.7909546
00:01.5,0.3364546,363.7909546
00:01.5,0.287885368,364.0050964
00:01.5,0.126662105,364.0050964
00:01.5,-0.091385156,364.0050964
00:01.5,-0.203516155,364.0050964
00:01.5,-0.243343949,364.2192078
00:01.5,-0.263895482,364.2192078
00:01.5,-0.195900247,364.2192078
00:01.5,-0.059269536,364.2192078
00:01.5,0.07239309,364.2192078
00:01.5,0.130479544,364.2192078
00:01.5,0.101128332,364.2192078
00:01.5,-0.056310207,364.2192078
00:01.5,-0.169877514,364.4333496
00:01.5,-0.190518439,364.4333496
00:01.5,-0.176573083,364.4333496
00:01.5,-0.095202491,364.4333496
00:01.5,0.013046402,364.8616333
00:01.5,0.106215879,364.8616333
00:01.5,0.096137881,364.8616333
00:01.5,0.054446299,364.8616333
00:01.5,0.198066175,364.6474915
00:01.5,0.33688888,364.6474915
00:01.5,0.299507886,364.6474915
00:01.5,0.21620658,364.6474915
00:01.5,0.13569437,364.6474915
00:01.5,0.079414926,364.6474915
00:01.5,0.009764632,364.6474915
00:01.5,-0.089672752,364.6474915
00:01.5,-0.166784853,364.8616333
00:01.5,-0.14587754,364.8616333
00:01.6,-0.078998201,364.8616333
00:01.6,-0.114565507,364.8616333
00:01.6,-0.16808413,364.8616333
00:01.6,-0.225756347,364.8616333
00:01.6,-0.148165643,364.8616333
00:01.6,-0.068737321,364.8616333
00:01.6,-0.025333401,365.0757446
00:01.6,-0.011569647,365.0757446
00:01.6,-0.074728571,365.0757446
00:01.6,-0.057111658,365.0757446
00:01.6,0.098910764,364.8616333
00:01.6,0.177152574,364.8616333
00:01.6,0.105017334,364.8616333
00:01.6,-0.058202527,364.8616333
00:01.6,-0.046977736,365.0757446
00:01.6,-0.009894605,365.0757446
00:01.6,0.022159141,365.0757446
00:01.6,0.182355121,365.0757446
00:01.6,0.234339148,364.8616333
00:01.6,0.038064107,364.8616333
00:01.6,-0.176800251,364.8616333
00:01.6,-0.059785616,364.8616333
00:01.6,0.165259212,365.2898865
00:01.6,0.219352484,365.2898865
00:01.6,0.07164976,365.2898865
00:01.6,-0.066773646,365.2898865
00:01.6,-0.159927413,365.2898865
00:01.6,-0.143802941,365.2898865
00:01.6,-0.132176667,365.2898865
00:01.6,-0.086825334,365.2898865
00:01.6,-0.063913316,365.5040283
00:01.6,-0.069138251,365.5040283
00:01.6,0.021848517,365.5040283
00:01.6,0.011431516,365.5040283
00:01.6,-0.059883781,365.5040283
00:01.6,0.04916006,365.5040283
00:01.6,0.217994094,365.5040283
00:01.6,0.164113984,365.5040283
00:01.6,-0.076839618,365.7181702
00:01.6,-0.029616851,365.7181702
00:01.6,0.010852842,365.7181702
00:01.6,-0.086242102,365.7181702
00:01.6,-0.096585073,365.7181702
00:01.6,-0.006957388,365.7181702
00:01.6,0.033135023,365.7181702
00:01.6,0.06593319,365.7181702
00:01.6,0.054795697,365.9322815
00:01.6,0.111007251,365.9322815
00:01.6,0.183914512,365.9322815
00:01.6,0.235518977,365.9322815
00:01.6,0.105019033,366.1464233
00:01.6,-0.073387504,366.1464233
00:01.6,-0.161968976,366.1464233
00:01.6,-0.275583893,366.1464233
00:01.6,-0.301560611,366.1464233
00:01.6,-0.138032109,366.1464233
00:01.6,0.101897359,366.1464233
00:01.6,0.263197869,366.1464233
00:01.6,0.153051764,366.3605652
00:01.6,-0.016830897,366.3605652
00:01.6,-0.056036811,366.3605652
00:01.6,-0.091871195,366.3605652
00:01.6,-0.250989079,366.3605652
00:01.6,-0.3202613,366.3605652
00:01.6,-0.234473884,366.3605652
00:01.6,-0.06235965,366.3605652
00:01.6,0.028051659,366.3605652
00:01.6,0.069914021,366.3605652
00:01.6,0.114008144,366.3605652
00:01.6,0.217286855,366.3605652
00:01.6,0.304885119,366.574707
00:01.6,0.384716719,366.574707
00:01.6,0.371478051,366.574707
00:01.6,0.18986851,366.574707
00:01.6,0.030106122,366.7888184
00:01.6,-0.134675607,366.7888184
00:01.6,-0.23771137,366.7888184
00:01.6,-0.219819874,366.7888184
00:01.6,-0.252360016,366.7888184
00:01.6,-0.376674712,366.7888184
00:01.6,-0.303845406,366.7888184
00:01.6,-0.054483153,366.7888184
00:01.6,0.120908335,367.2171021
00:01.6,0.283740014,367.2171021
00:01.6,0.483668447,367.2171021
00:01.6,0.462994963,367.2171021
00:01.6,0.173231333,367.4312439
00:01.6,-0.164203554,367.4312439
00:01.6,-0.351750404,367.4312439
00:01.6,-0.225721464,367.4312439
00:01.6,-0.068670966,367.6453552
00:01.6,-0.035453919,367.6453552
00:01.6,-0.008793412,367.6453552
00:01.6,0.096576035,367.6453552
00:01.6,0.091772653,367.8594971
00:01.6,-0.025919069,367.8594971
00:01.6,-0.107981674,367.8594971
00:01.6,-0.092577375,367.8594971
00:01.6,-0.098270267,368.0736389
00:01.6,-0.16410315,368.0736389
00:01.7,-0.173426494,368.0736389
00:01.7,-0.144705221,368.0736389
00:01.7,-0.088349089,368.5018921
00:01.7,0.030905304,368.5018921
00:01.7,0.079891801,368.5018921
00:01.7,0.157221302,368.5018921
00:01.7,0.203184858,368.7160339
00:01.7,0.277218491,368.7160339
00:01.7,0.188337773,368.7160339
00:01.7,0.076816261,368.7160339
00:01.7,0.138964832,368.7160339
00:01.7,0.174226478,368.7160339
00:01.7,0.052978493,368.7160339
00:01.7,-0.002352288,368.7160339
00:01.7,0.013691971,369.1443176
00:01.7,-0.094378293,369.1443176
00:01.7,-0.285855085,369.1443176
00:01.7,-0.28876552,369.1443176
00:01.7,-0.172588468,369.1443176
00:01.7,-0.233085901,369.1443176
00:01.7,-0.218303561,369.1443176
00:01.7,-0.0615605,369.1443176
00:01.7,0.066557176,369.358429
00:01.7,0.058269758,369.358429
00:01.7,0.052209184,369.358429
00:01.7,0.213320792,369.358429
00:01.7,0.285366774,369.358429
00:01.7,0.34217158,369.358429
00:01.7,0.281551123,369.358429
00:01.7,0.11912369,369.358429
00:01.7,0.009571292,369.5725708
00:01.7,-0.054340504,369.5725708
00:01.7,-0.124926336,369.5725708
00:01.7,-0.259330422,369.5725708
00:01.7,-0.279118657,369.5725708
00:01.7,-0.210202634,369.5725708
00:01.7,-0.059080917,369.5725708
00:01.7,-0.031162405,369.5725708
00:01.7,-0.040027622,370.0008545
00:01.7,0.033105191,370.0008545
00:01.7,0.09153682,370.0008545
00:01.7,0.040929351,370.0008545
00:01.7,-0.009522071,369.7867126
00:01.7,0.016433382,369.7867126
00:01.7,0.077726029,369.7867126
00:01.7,0.158689097,369.7867126
00:01.7,0.081385411,370.2149658
00:01.7,0.002541454,370.2149658
00:01.7,-0.01230935,370.2149658
00:01.7,0.013230246,370.2149658
00:01.7,0.078701146,370.2149658
00:01.7,0.058637064,370.2149658
00:01.7,-0.062104557,370.2149658
00:01.7,-0.179372549,370.2149658
00:01.7,-0.295273364,370.4291077
00:01.7,-0.30213207,370.4291077
00:01.7,-0.215055749,370.4291077
00:01.7,0.019012975,370.4291077
00:01.7,0.2509498,370.4291077
00:01.7,0.328556538,370.4291077
00:01.7,0.318861187,370.4291077
00:01.7,0.359778523,370.4291077
00:01.7,0.163501859,370.6432495
00:01.7,-0.127149895,370.6432495
00:01.7,-0.256253362,370.6432495
00:01.7,-0.227563888,370.6432495
00:01.7,-0.191680819,370.8573914
00:01.7,-0.183334813,370.8573914
00:01.7,-0.118371069,370.8573914
00:01.7,-0.058464173,370.8573914
00:01.7,0.007654063,371.0715027
00:01.7,0.004978526,371.0715027
00:01.7,0.095060438,371.0715027
00:01.7,0.228432104,371.0715027
00:01.7,0.208149344,371.0715027
00:01.7,0.204893738,371.0715027
00:01.7,0.213890389,371.0715027
00:01.7,0.186095387,371.0715027
00:01.7,0.130776495,371.2856445
00:01.7,-0.010447466,371.2856445
00:01.7,-0.268231988,371.2856445
00:01.7,-0.307560474,371.2856445
00:01.7,-0.192892388,371.4997864
00:01.7,-0.126099437,371.4997864
00:01.7,-0.06147401,371.4997864
00:01.7,-0.043219313,371.4997864
00:01.7,-0.121214792,371.4997864
00:01.7,-0.173160121,371.4997864
00:01.7,-0.139279261,371.4997864
00:01.7,-0.040187065,371.4997864
00:01.7,0.006139161,371.7139282
00:01.7,0.007772059,371.7139282
00:01.7,0.080891609,371.7139282
00:01.7,0.280112267,371.7139282
00:01.7,0.365412623,371.9280396
00:01.7,0.319645703,371.9280396
00:01.7,0.260514468,371.9280396
00:01.7,0.131906748,371.9280396
00:01.7,-0.034618322,372.1421814
00:01.7,-0.236609161,372.1421814
00:01.8,-0.251983911,372.1421814
00:01.8,-0.189327359,372.1421814
00:01.8,-0.135901287,372.1421814
00:01.8,-0.046346717,372.1421814
00:01.8,-0.116363958,372.1421814
00:01.8,-0.173025221,372.1421814
00:01.8,-0.039505862,372.3563232
00:01.8,0.1500144,372.3563232
00:01.8,0.270289272,372.3563232
00:01.8,0.276028007,372.3563232
00:01.8,0.194128349,372.5704651
00:01.8,0.125669703,372.5704651
00:01.8,-0.096102297,372.5704651
00:01.8,-0.337345213,372.5704651
00:01.8,-0.350230604,372.5704651
00:01.8,-0.275980949,372.5704651
00:01.8,-0.110880747,372.5704651
00:01.8,0.016537262,372.5704651
00:01.8,0.181518584,372.3563232
00:01.8,0.24552837,372.3563232
00:01.8,0.266034126,372.3563232
00:01.8,0.187572077,372.3563232
00:01.8,0.070849389,372.3563232
00:01.8,0.020350676,372.3563232
00:01.8,0.036479484,372.3563232
00:01.8,0.00153723,372.3563232
00:01.8,0.005139048,372.3563232
00:01.8,-0.004315133,372.3563232
00:01.8,-0.079397388,372.3563232
00:01.8,-0.11119628,372.3563232
00:01.8,-0.027607683,372.5704651
00:01.8,0.002888424,372.5704651
00:01.8,0.015889201,372.5704651
00:01.8,-0.148809865,372.5704651
00:01.8,-0.342934012,372.1421814
00:01.8,-0.314026445,372.1421814
00:01.8,-0.169284016,372.1421814
00:01.8,-0.093445912,372.1421814
00:01.8,0.02055891,372.1421814
00:01.8,0.10356684,372.1421814
00:01.8,0.003167052,372.1421814
00:01.8,-0.034182936,372.1421814
00:01.8,0.002760965,371.9280396
00:01.8,0.203199908,371.9280396
00:01.8,0.353905827,371.9280396
00:01.8,0.362605482,371.9280396
00:01.8,0.341606855,372.1421814
00:01.8,0.245800927,372.1421814
00:01.8,0.028455954,372.1421814
00:01.8,-0.083959885,372.1421814
00:01.8,-0.157715768,371.9280396
00:01.8,-0.15960145,371.9280396
00:01.8,0.004927916,371.9280396
00:01.8,0.077123351,371.9280396
00:01.8,0.076120593,372.1421814
00:01.8,0.020050619,372.1421814
00:01.8,-0.061007977,372.1421814
00:01.8,-0.207964316,372.1421814
00:01.8,-0.218764737,372.1421814
00:01.8,-0.044397384,372.1421814
00:01.8,-0.120699115,372.1421814
00:01.8,-0.198556885,372.1421814
00:01.8,-0.16478461,372.1421814
00:01.8,-0.143787444,372.1421814
00:01.8,-0.058493268,372.1421814
00:01.8,-0.016143104,372.1421814
00:01.8,0.001561044,372.1421814
00:01.8,0.092704259,372.1421814
00:01.8,0.166306689,372.1421814
00:01.8,0.135977104,372.1421814
00:01.8,0.079185508,372.1421814
00:01.8,0.086470902,372.1421814
00:01.8,0.135694876,372.1421814
00:01.8,0.106011726,372.1421814
00:01.8,-0.024355832,372.1421814
00:01.8,-0.097098,372.1421814
00:01.8,0.065290302,372.1421814
00:01.8,0.279862136,372.1421814
00:01.8,0.337834269,372.1421814
00:01.8,0.151413918,372.1421814
00:01.8,-0.125713706,372.1421814
00:01.8,-0.30749917,372.1421814
00:01.8,-0.357736349,372.1421814
00:01.8,-0.2739636,372.1421814
00:01.8,-0.255179882,372.1421814
00:01.8,-0.19800587,372.1421814
00:01.8,-0.034331866,372.1421814
00:01.8,0.095992863,372.1421814
00:01.8,0.220563591,372.1421814
00:01.8,0.30574429,372.1421814
00:01.8,0.337578446,372.5704651
00:01.8,0.298132837,372.5704651
00:01.8,0.151709259,372.5704651
00:01.8,0.084476031,372.5704651
00:01.8,0.06075481,372.5704651
00:01.8,-0.043227173,372.5704651
00:01.8,-0.236400947,372.5704651
00:01.8,-0.370504469,372.5704651
00:01.8,-0.30006355,372.7845764
00:01.8,-0.24120295,372.7845764
00:01.9,-0.253820568,372.7845764
00:01.9,-0.287234843,372.7845764
00:01.9,-0.187221095,372.9987183
00:01.9,-0.015654249,372.9987183
00:01.9,0.064897411,372.9987183
00:01.9,0.136550263,372.9987183
00:01.9,0.280474514,372.9987183
00:01.9,0.412488192,372.9987183
00:01.9,0.395204037,372.9987183
00:01.9,0.229385585,372.9987183
00:01.9,0.104974508,373.6411133
00:01.9,0.073146768,373.6411133
00:01.9,0.032057457,373.6411133
00:01.9,-0.128336787,373.6411133
00:01.9,-0.189695746,373.8552551
00:01.9,-0.19644855,373.8552551
00:01.9,-0.238418743,373.8552551
00:01.9,-0.183227137,373.8552551
00:01.9,0.022898095,374.069397
00:01.9,0.275982201,374.069397
00:01.9,0.361780673,374.069397
00:01.9,0.203149959,374.069397
00:01.9,0.174481899,374.4976501
00:01.9,0.242610976,374.4976501
00:01.9,0.113773964,374.4976501
00:01.9,-0.206898257,374.4976501
00:01.9,-0.440050215,374.711792
00:01.9,-0.464197606,374.711792
00:01.9,-0.424184769,374.711792
00:01.9,-0.360587835,374.711792
00:01.9,-0.251550645,375.1400757
00:01.9,-0.227517247,375.1400757
00:01.9,-0.128154531,375.1400757
00:01.9,0.149994999,375.1400757
00:01.9,0.341982394,375.1400757
00:01.9,0.375862092,375.1400757
00:01.9,0.319326401,375.1400757
00:01.9,0.333926737,375.1400757
00:01.9,0.265542001,375.5683289
00:01.9,0.014654615,375.5683289
00:01.9,-0.106853493,375.5683289
00:01.9,-0.030189687,375.5683289
00:01.9,0.156292051,375.9966125
00:01.9,0.149373278,375.9966125
00:01.9,0.116397783,375.9966125
00:01.9,0.014614766,375.9966125
00:01.9,-0.076305538,376.2107239
00:01.9,-0.165571347,376.2107239
00:01.9,-0.248701975,376.2107239
00:01.9,-0.223832875,376.2107239
00:01.9,-0.199430496,376.4248657
00:01.9,-0.0450643,376.4248657
00:01.9,0.139979199,376.4248657
00:01.9,-0.023126099,376.4248657
00:01.9,-0.169239238,376.8531494
00:01.9,-0.133024678,376.8531494
00:01.9,0.031310026,376.8531494
00:01.9,0.308435351,376.8531494
00:01.9,0.317422926,377.2814026
00:01.9,0.126325309,377.2814026
00:01.9,-0.095886983,377.2814026
00:01.9,-0.173278779,377.2814026
00:01.9,-0.233705059,377.4955444
00:01.9,-0.342315078,377.4955444
00:01.9,-0.322729051,377.4955444
00:01.9,-0.087534823,377.4955444
00:01.9,0.206751511,377.9237976
00:01.9,0.343566626,377.9237976
00:01.9,0.461923569,377.9237976
00:01.9,0.427280635,377.9237976
00:01.9,0.19347699,378.5661926
00:01.9,-0.014662208,378.5661926
00:01.9,-0.063948728,378.5661926
00:01.9,0.055374686,378.5661926
00:01.9,0.046539336,378.7803345
00:01.9,-0.063450985,378.7803345
00:01.9,-0.158220172,378.7803345
00:01.9,-0.247177973,378.7803345
00:01.9,-0.379911214,379.4227295
00:01.9,-0.446591824,379.4227295
00:01.9,-0.438394517,379.4227295
00:01.9,-0.213186279,379.4227295
00:01.9,0.12393821,379.8510132
00:01.9,0.08755859,379.8510132
00:01.9,0.040853553,379.8510132
00:01.9,0.305394202,379.8510132
00:01.9,0.43807584,380.065155
00:01.9,0.441751361,380.065155
00:01.9,0.329149842,380.065155
00:01.9,0.146324605,380.065155
00:01.9,0.117616035,380.4934082
00:01.9,0.071445554,380.4934082
00:01.9,0.012435803,380.4934082
00:01.9,-0.099416196,380.4934082
00:01.9,-0.174998,381.1358032
00:01.9,-0.126219422,381.1358032
00:01.9,-0.04498934,381.1358032
00:01.9,-0.085194036,381.1358032
00:01.9,-0.168428347,381.7782288
00:01.9,-0.201523021,381.7782288
00:02.0,-0.220850661,381.7782288
00:02.0,-0.32091108,381.7782288
00:02.0,-0.389660716,381.7782288
00:02.0,-0.279730976,381.7782288
00:02.0,-0.146191835,381.7782288
00:02.0,0.086987644,381.7782288
00:02.0,0.248625621,382.2064819
00:02.0,0.309792727,382.2064819
00:02.0,0.426099241,382.2064819
00:02.0,0.323579431,382.2064819
00:02.0,0.159451112,382.4206238
00:02.0,0.139956295,382.4206238
00:02.0,0.266481876,382.4206238
00:02.0,0.404282957,382.4206238
00:02.0,0.320379227,382.848877
00:02.0,0.116554119,382.848877
00:02.0,-0.087180257,382.848877
00:02.0,-0.322170287,382.848877
00:02.0,-0.48519811,383.2771606
00:02.0,-0.512604892,383.2771606
00:02.0,-0.416965097,383.2771606
00:02.0,-0.24006407,383.2771606
00:02.0,-0.106086373,383.7054138
00:02.0,-0.008163443,383.7054138
00:02.0,0.055389192,383.7054138
00:02.0,-0.046342023,383.7054138
00:02.0,-0.100030601,384.3478394
00:02.0,0.052377358,384.3478394
00:02.0,0.039941799,384.3478394
00:02.0,0.017596871,384.3478394
00:02.0,0.166034505,384.5619507
00:02.0,0.287700236,384.5619507
00:02.0,0.284872323,384.5619507
00:02.0,0.233902484,384.5619507
00:02.0,0.159281239,384.9902344
00:02.0,0.141455024,384.9902344
00:02.0,0.001023169,384.9902344
00:02.0,-0.068226099,384.9902344
00:02.0,-0.060660195,385.4184875
00:02.0,-0.037832588,385.4184875
00:02.0,-0.070232913,385.4184875
00:02.0,0.072761036,385.4184875
00:02.0,0.147824153,385.8467712
00:02.0,0.105223693,385.8467712
00:02.0,-0.061084304,385.8467712
00:02.0,-0.167226613,385.8467712
00:02.0,-0.212073132,386.4891663
00:02.0,-0.217484638,386.4891663
00:02.0,-0.186616302,386.4891663
00:02.0,-0.080120221,386.4891663
0:00:02,0.068835393,386.91745
00:02.0,0.006226207,386.91745
00:02.0,-0.09492401,386.91745
00:02.0,-0.182283834,386.91745
00:02.0,-0.255126864,387.559845
00:02.0,-0.129802138,387.559845
00:02.0,0.031865753,387.559845
00:02.0,0.143627629,387.559845
00:02.0,0.164632782,387.9880981
00:02.0,0.140174553,387.9880981
00:02.0,0.11553625,387.9880981
00:02.0,0.096225888,387.9880981
00:02.0,0.174703836,388.4163818
00:02.0,0.272354603,388.4163818
00:02.0,0.248533145,388.4163818
00:02.0,0.135537237,388.4163818
00:02.0,0.024923146,388.844635
00:02.0,-0.066470996,388.844635
00:02.0,-0.061773207,388.844635
00:02.0,-0.096966214,388.844635
00:02.0,-0.139201149,389.2729187
00:02.0,-0.08216738,389.2729187
00:02.0,-0.076103501,389.2729187
00:02.0,-0.136666879,389.2729187
00:02.0,-0.069853894,389.7011719
00:02.0,-0.131486863,389.7011719
00:02.0,-0.179263413,389.7011719
00:02.0,-0.046266809,389.7011719
00:02.0,0.038704026,390.3435974
00:02.0,-0.002771561,390.3435974
00:02.0,-0.032421146,390.3435974
00:02.0,-0.069298133,390.3435974
00:02.0,-0.06125699,390.7718506
00:02.0,0.099979997,390.7718506
00:02.0,0.18305546,390.7718506
00:02.0,0.186554864,390.7718506
00:02.0,0.134346053,391.2001343
00:02.0,0.140382051,391.2001343
00:02.0,0.201771498,391.2001343
00:02.0,0.038106024,391.2001343
00:02.0,-0.142056197,391.8425293
00:02.0,-0.055453401,391.8425293
00:02.0,0.070507705,391.8425293
00:02.0,0.033680636,391.8425293
00:02.0,-0.03299902,392.2707825
00:02.0,-0.089537866,392.2707825
00:02.0,-0.013245148,392.2707825
00:02.0,-0.032608967,392.2707825
00:02.0,-0.135267451,392.913208
00:02.0,-0.076793149,392.913208
00:02.0,0.031134587,392.913208
00:02.1,0.087694123,392.913208
00:02.1,-0.085629337,393.3414612
00:02.1,-0.400703251,393.3414612
00:02.1,-0.352989316,393.3414612
00:02.1,-0.167732328,393.3414612
00:02.1,0.029935675,393.7697449
00:02.1,0.204663649,393.7697449
00:02.1,0.240577117,393.7697449
00:02.1,0.297658592,393.7697449
00:02.1,0.282889515,393.7697449
00:02.1,0.101066545,393.7697449
00:02.1,0.015179929,393.7697449
00:02.1,0.021859132,393.7697449
00:02.1,-0.014483416,394.197998
00:02.1,0.006518582,394.197998
00:02.1,-0.020190647,394.197998
00:02.1,-0.033427801,394.197998
00:02.1,0.025521185,394.6262817
00:02.1,0.077997796,394.6262817
00:02.1,0.080275521,394.6262817
00:02.1,0.032368895,394.6262817
00:02.1,0.060049128,395.0545349
00:02.1,0.040712304,395.0545349
00:02.1,-0.185526833,395.0545349
00:02.1,-0.457834691,395.0545349
00:02.1,-0.611853421,395.0545349
00:02.1,-0.488111526,395.0545349
00:02.1,-0.149180472,395.0545349
00:02.1,0.164566487,395.0545349
00:02.1,0.34467262,395.2686768
00:02.1,0.34310168,395.2686768
00:02.1,0.267081499,395.2686768
00:02.1,0.207291275,395.2686768
00:02.1,0.119845964,395.2686768
00:02.1,0.187078685,395.2686768
00:02.1,0.273011029,395.2686768
00:02.1,0.188754305,395.2686768
00:02.1,0.067506947,395.2686768
00:02.1,0.044547264,395.2686768
00:02.1,-0.011692966,395.2686768
00:02.1,-0.168906853,395.2686768
00:02.1,-0.421492726,395.2686768
00:02.1,-0.490103394,395.2686768
00:02.1,-0.268366426,395.2686768
00:02.1,-0.005879997,395.2686768
00:02.1,0.155873269,395.2686768
00:02.1,0.150660887,395.2686768
00:02.1,0.122712515,395.2686768
00:02.1,0.157872006,395.2686768
00:02.1,0.03406772,395.0545349
00:02.1,-0.060091857,395.0545349
00:02.1,-0.113659941,395.0545349
00:02.1,-0.140648857,395.0545349
00:02.1,-0.079955719,395.0545349
00:02.1,0.03016316,395.0545349
00:02.1,0.062152542,395.0545349
00:02.1,-0.024089068,395.0545349
00:02.1,3.47E-05,395.0545349
00:02.1,0.161130443,395.0545349
00:02.1,0.237484932,395.0545349
00:02.1,0.153710306,395.0545349
00:02.1,-0.000340302,395.0545349
00:02.1,-0.072164863,395.0545349
00:02.1,-0.05545678,395.0545349
00:02.1,-0.115355946,395.0545349
00:02.1,-0.148265049,394.6262817
00:02.1,-0.070410833,394.6262817
00:02.1,0.051269986,394.6262817
00:02.1,0.072040789,394.6262817
00:02.1,0.01053563,394.4121399
00:02.1,-0.033295162,394.4121399
00:02.1,-0.057529628,394.4121399
00:02.1,-0.084724963,394.4121399
00:02.1,-0.132428139,394.197998
00:02.1,-0.083596691,394.197998
00:02.1,0.021265959,394.197998
00:02.1,0.231562018,394.197998
00:02.1,0.332659096,393.555603
00:02.1,0.12112575,393.555603
00:02.1,-0.072097749,393.555603
00:02.1,-0.169233039,393.555603
00:02.1,-0.174638987,392.913208
00:02.1,-0.094421789,392.913208
00:02.1,0.014431584,392.913208
00:02.1,0.059521537,392.913208
00:02.1,0.043122474,392.4849243
00:02.1,0.003556528,392.4849243
00:02.1,0.002552426,392.4849243
00:02.1,0.038609717,392.4849243
00:02.1,0.075718485,391.6283875
00:02.1,0.05548121,391.6283875
00:02.1,0.041440234,391.6283875
00:02.1,0.00044123,391.6283875
00:02.1,-0.07589338,390.7718506
00:02.1,-0.067764953,390.7718506
00:02.1,-0.034770332,390.7718506
00:02.1,0.010931205,390.7718506
00:02.1,0.069131888,389.4870605
00:02.1,0.04835875,389.4870605
00:02.2,-0.050811976,389.4870605
00:02.2,-0.121372469,389.4870605
00:02.2,-0.095040403,387.9880981
00:02.2,-0.014995263,387.9880981
00:02.2,0.028489741,387.9880981
00:02.2,0.009792875,387.9880981
00:02.2,-0.00048977,386.0609131
00:02.2,0.026713749,386.0609131
00:02.2,0.078617461,386.0609131
00:02.2,0.068467855,386.0609131
00:02.2,0.024887525,383.7054138
00:02.2,0.026981451,383.7054138
00:02.2,0.033980086,383.7054138
00:02.2,0.051729571,383.7054138
00:02.2,0.033382837,380.70755
00:02.2,0.00740267,380.70755
00:02.2,-0.012300298,380.70755
00:02.2,-0.030940114,380.70755
00:02.2,-0.038112197,377.4955444
00:02.2,-0.028354418,377.4955444
00:02.2,-0.053586721,377.4955444
00:02.2,-0.070482865,377.4955444
00:02.2,-0.053045586,372.9987183
00:02.2,-0.055692174,372.9987183
00:02.2,-0.105299309,372.9987183
00:02.2,-0.065815255,372.9987183
00:02.2,-0.00561278,368.0736389
00:02.2,0.044369377,368.0736389
00:02.2,0.092293262,368.0736389
00:02.2,0.08896745,368.0736389
00:02.2,0.040168498,361.863739
00:02.2,-0.001237225,361.863739
00:02.2,0.046081785,361.863739
00:02.2,0.084635817,361.863739
00:02.2,0.077460833,355.0114441
00:02.2,0.015013217,355.0114441
00:02.2,-0.035767589,355.0114441
00:02.2,-0.052248947,355.0114441
00:02.2,-0.036813803,347.088501
00:02.2,-0.007329904,347.088501
00:02.2,-0.003151959,347.088501
00:02.2,-0.023751607,347.088501
00:02.2,-0.012662668,338.7372742
00:02.2,0.021402216,338.7372742
00:02.2,0.012499322,338.7372742
00:02.2,-0.062295709,338.7372742
00:02.2,-0.049141612,329.7436218
00:02.2,0.017227005,329.7436218
00:02.2,0.065293126,329.7436218
00:02.2,0.074695878,329.7436218
00:02.2,0.049661566,320.75
00:02.2,-0.012837469,320.75
00:02.2,-0.07473629,320.75
00:02.2,-0.129865572,320.75
00:02.2,-0.129515454,311.1139526
00:02.2,-0.097938299,311.1139526
00:02.2,-0.030669972,311.1139526
00:02.2,0.057596836,311.1139526
00:02.2,0.11012648,301.4779358
00:02.2,0.085734479,301.4779358
00:02.2,0.024468424,301.4779358
00:02.2,-0.022826413,301.4779358
00:02.2,-0.057019025,291.4136047
00:02.2,-0.06589783,291.4136047
00:02.2,-0.044079509,291.4136047
00:02.2,-0.035953369,291.4136047
00:02.2,-0.004876528,280.921051
00:02.2,0.037791252,280.921051
00:02.2,0.123738766,280.921051
00:02.2,0.133109197,280.921051
00:02.2,0.106589124,270.214325
00:02.2,0.063502602,270.214325
00:02.2,0.035493411,270.214325
00:02.2,0.027450025,270.214325
00:02.2,0.027243523,259.0793762
00:02.2,0.017805081,259.0793762
00:02.2,0.011992911,259.0793762
00:02.2,-0.000486826,259.0793762
00:02.2,0.001660544,247.7302551
00:02.2,0.021163875,247.7302551
00:02.2,0.026577504,247.7302551
00:02.2,-0.013552808,247.7302551
00:02.2,-0.037845291,236.3811493
00:02.2,-0.045652501,236.3811493
00:02.2,-0.064726166,236.3811493
00:02.2,-0.074930623,236.3811493
00:02.2,-0.069026902,225.0320435
00:02.2,-0.048505887,225.0320435
00:02.2,-0.02026329,225.0320435
00:02.2,0.010462722,225.0320435
00:02.2,0.039849464,214.1111908
00:02.2,0.020556098,214.1111908
00:02.2,-0.035995863,214.1111908
00:02.2,-0.100875176,214.1111908
00:02.2,-0.132391408,202.9762268
00:02.2,-0.143291414,202.9762268
00:02.2,-0.089256704,202.9762268
00:02.2,0.010153027,202.9762268
00:02.2,0.057198904,192.6977844
00:02.2,0.072213896,192.6977844
00:02.3,0.08808101,192.6977844
00:02.3,0.048502322,192.6977844
00:02.3,0.054155707,182.419342
00:02.3,0.113177419,182.419342
00:02.3,0.126556903,182.419342
00:02.3,0.077846333,182.419342
00:02.3,-0.01010139,172.9974518
00:02.3,-0.096352786,172.9974518
00:02.3,-0.083331011,172.9974518
00:02.3,-0.005325368,172.9974518
00:02.3,0.047361571,163.7896729
00:02.3,0.039011564,163.7896729
00:02.3,0.015908903,163.7896729
00:02.3,0.003432827,163.7896729
00:02.3,-0.037362989,154.796051
00:02.3,-0.055641804,154.796051
00:02.3,-0.022079451,154.796051
00:02.3,-0.017682789,154.796051
00:02.3,-0.053585451,145.8024139
00:02.3,-0.078834996,145.8024139
00:02.3,-0.058397904,145.8024139
00:02.3,-0.019862384,145.8024139
00:02.3,-3.93E-05,137.2370453
00:02.3,0.038131021,137.2370453
00:02.3,0.079348147,137.2370453
00:02.3,0.095508732,137.2370453
00:02.3,0.098207481,128.8858185
00:02.3,0.09111724,128.8858185
00:02.3,0.041582778,128.8858185
00:02.3,-0.025725918,128.8858185
00:02.3,-0.008329403,120.9628525
00:02.3,0.148590595,120.9628525
00:02.3,0.097311378,120.9628525
00:02.3,-0.029000584,120.9628525
00:02.3,-0.131780639,112.8257599
00:02.3,-0.182794958,112.8257599
00:02.3,-0.253524423,112.8257599
00:02.3,-0.277394146,112.8257599
00:02.3,-0.244169816,105.3310623
00:02.3,-0.184160233,105.3310623
00:02.3,-0.150133952,105.3310623
00:02.3,-0.069448948,105.3310623
00:02.3,0.097131558,98.05049896
00:02.3,0.184852675,98.05049896
00:02.3,0.264260948,98.05049896
00:02.3,0.355531722,98.05049896
00:02.3,0.378984123,90.98407745
00:02.3,0.282382309,90.98407745
00:02.3,0.197482586,90.98407745
00:02.3,0.128568068,90.98407745
00:02.3,0.095469572,84.56005096
00:02.3,0.165560201,84.56005096
00:02.3,0.097000204,84.56005096
00:02.3,-0.003313085,84.56005096
00:02.3,-0.083887503,78.56429291
00:02.3,-0.140752211,78.56429291
00:02.3,-0.17719464,78.56429291
00:02.3,-0.191924125,78.56429291
00:02.3,-0.217001125,72.99681091
00:02.3,-0.225831494,72.99681091
00:02.3,-0.207756311,72.99681091
00:02.3,-0.198924363,72.99681091
00:02.3,-0.180258825,67.85758972
00:02.3,-0.123162247,67.85758972
00:02.3,-0.067853458,67.85758972
00:02.3,-0.030426532,67.85758972
00:02.3,0.043028776,62.93250656
00:02.3,0.105231345,62.93250656
00:02.3,0.096117057,62.93250656
00:02.3,0.039031371,62.93250656
00:02.3,0.03813567,58.64982224
00:02.3,0.071520962,58.64982224
00:02.3,0.073081799,58.64982224
00:02.3,0.085674755,58.64982224
00:02.3,0.102940127,54.79540634
00:02.3,0.097900629,54.79540634
00:02.3,0.056036521,54.79540634
00:02.3,0.016948679,54.79540634
00:02.3,-0.017303873,51.15512848
00:02.3,-0.000728283,51.15512848
00:02.3,0.000602635,51.15512848
00:02.3,-0.029957371,51.15512848
00:02.3,-0.036719363,47.94311523
00:02.3,0.021265054,47.94311523
00:02.3,0.05964021,47.94311523
00:02.3,0.037039652,47.94311523
00:02.3,0.045659378,44.94523621
00:02.3,0.053905901,44.94523621
00:02.3,0.006595972,44.94523621
00:02.3,-0.075239718,44.94523621
00:02.3,-0.076205149,41.94736099
00:02.3,-0.05366968,41.94736099
00:02.3,-0.067339689,41.94736099
00:02.3,-0.065255918,41.94736099
00:02.3,0.014238845,39.59188461
00:02.3,0.039914295,39.59188461
00:02.3,0.016546974,39.59188461
00:02.3,0.023234418,39.59188461
00:02.3,0.007123802,37.23640823
00:02.3,0.027594034,37.23640823
00:02.4,0.081586383,37.23640823
00:02.4,0.065116644,37.23640823
00:02.4,-0.007351353,34.88093567
00:02.4,-0.054005653,34.88093567
00:02.4,-0.031013381,34.88093567
00:02.4,-0.034318034,34.88093567
00:02.4,-0.03513138,32.95372772
00:02.4,0.010772784,32.95372772
00:02.4,0.0272798,32.95372772
00:02.4,0.015005634,32.95372772
00:02.4,-0.014029354,31.24065399
00:02.4,-0.019312663,31.24065399
00:02.4,-0.009432989,31.24065399
00:02.4,0.022313224,31.24065399
00:02.4,0.032934889,29.52758026
00:02.4,0.002365707,29.52758026
00:02.4,-0.014998337,29.52758026
00:02.4,0.004173945,29.52758026
00:02.4,0.012504295,27.81450844
00:02.4,-0.004675,27.81450844
00:02.4,-0.026999308,27.81450844
00:02.4,-0.041264981,27.81450844
00:02.4,-0.04884582,26.52970314
00:02.4,-0.05997147,26.52970314
00:02.4,-0.06695684,26.52970314
00:02.4,-0.051908921,26.52970314
00:02.4,-0.046243235,25.03076363
00:02.4,-0.0549188,25.03076363
00:02.4,-0.043753572,25.03076363
00:02.4,-0.016097425,25.03076363
00:02.4,-0.007097494,23.53182602
00:02.4,-0.009834818,23.53182602
00:02.4,0.025713963,23.53182602
00:02.4,0.072551362,23.53182602
00:02.4,0.072279267,22.67528915
00:02.4,0.047017634,22.67528915
00:02.4,0.05300989,22.67528915
00:02.4,0.063561656,22.67528915
00:02.4,0.06177102,21.60461807
00:02.4,0.0383779,21.60461807
00:02.4,0.030150546,21.60461807
00:02.4,0.035908341,21.60461807
00:02.4,0.026750829,20.53394699
00:02.4,0.026689682,20.53394699
00:02.4,0.036136817,20.53394699
00:02.4,0.018572807,20.53394699
00:02.4,-0.005450615,19.67741013
00:02.4,-0.022498408,19.67741013
00:02.4,-0.015805824,19.67741013
00:02.4,0.013738941,19.67741013
00:02.4,0.027400866,18.60674095
00:02.4,0.011683509,18.60674095
00:02.4,-0.020966267,18.60674095
00:02.4,-0.056533229,18.60674095
00:02.4,-0.090160467,17.9643383
00:02.4,-0.100650758,17.9643383
00:02.4,-0.094769865,17.9643383
00:02.4,-0.07808543,17.9643383
00:02.4,-0.059564319,17.10780144
00:02.4,-0.053964105,17.10780144
00:02.4,-0.042337161,17.10780144
00:02.4,-0.036113042,17.10780144
00:02.4,-0.010535774,16.46539879
00:02.4,0.069825791,16.46539879
00:02.4,0.104385711,16.46539879
00:02.4,0.097854652,16.46539879
00:02.4,0.083575763,15.82299709
00:02.4,0.055868611,15.82299709
00:02.4,0.035113487,15.82299709
00:02.4,0.006539365,15.82299709
00:02.4,-0.006520157,15.60886288
00:02.4,-0.01785161,15.60886288
00:02.4,-0.02692098,15.60886288
00:02.4,-0.006634381,15.60886288
00:02.4,0.003033429,14.96646023
00:02.4,0.02767548,14.96646023
00:02.4,0.05441609,14.96646023
00:02.4,0.056926899,14.96646023
00:02.4,0.052496977,14.5381918
00:02.4,0.038890537,14.5381918
00:02.4,0.033578213,14.5381918
00:02.4,0.006283966,14.5381918
00:02.4,-0.014468197,13.8957901
00:02.4,-0.02944934,13.8957901
00:02.4,-0.034951411,13.8957901
00:02.4,-0.03839042,13.8957901
00:02.4,-0.03992426,13.68165588
00:02.4,-0.026346259,13.68165588
00:02.4,-0.040266197,13.68165588
00:02.4,-0.060324296,13.68165588
00:02.4,-0.072616741,13.25338745
00:02.4,-0.07358674,13.25338745
00:02.4,-0.061984025,13.25338745
00:02.4,-0.047192294,13.25338745
00:02.4,-0.035366502,13.03925323
00:02.4,0.001180444,13.03925323
00:02.4,0.014090286,13.03925323
00:02.4,0.024943098,13.03925323
00:02.4,0.029049369,12.82511902
00:02.4,0.037477605,12.82511902
00:02.5,0.051984772,12.82511902
00:02.5,0.059452202,12.82511902
00:02.5,0.079167888,12.6109848
00:02.5,0.094660841,12.6109848
00:02.5,0.109370835,12.6109848
00:02.5,0.125170186,12.6109848
00:02.5,0.133835912,12.39685059
00:02.5,0.054730307,12.39685059
00:02.5,-0.022953974,12.39685059
00:02.5,-0.048341975,12.39685059
00:02.5,-0.052774657,12.18271637
00:02.5,-0.061612397,12.18271637
00:02.5,-0.076359063,12.18271637
00:02.5,-0.083729215,12.18271637
00:02.5,-0.098444946,11.96858215
00:02.5,-0.115141548,11.96858215
00:02.5,-0.107683763,11.96858215
00:02.5,-0.10249079,11.96858215
00:02.5,-0.093100093,11.96858215
00:02.5,-0.080437727,11.96858215
00:02.5,-0.065441884,11.96858215
00:02.5,-0.040077481,11.96858215
00:02.5,0.003825254,11.32618046
00:02.5,0.064568505,11.32618046
00:02.5,0.111949705,11.32618046
00:02.5,0.123528503,11.32618046
00:02.5,0.106401548,11.54031467
00:02.5,0.085452102,11.54031467
00:02.5,0.040626936,11.54031467
00:02.5,0.011521016,11.54031467
00:02.5,0.007858156,11.11204624
00:02.5,0.01993786,11.11204624
00:02.5,0.053675864,11.11204624
00:02.5,0.065561809,11.11204624
00:02.5,0.048641387,10.89791203
00:02.5,0.041638315,10.89791203
00:02.5,0.013708433,10.89791203
00:02.5,-0.002593217,10.89791203
00:02.5,-0.023981923,10.68377781
00:02.5,-0.042028684,10.68377781
00:02.5,-0.056082662,10.68377781
00:02.5,-0.056923769,10.68377781
00:02.5,-0.053443596,10.46964359
00:02.5,-0.042504311,10.46964359
00:02.5,-0.040835317,10.46964359
00:02.5,-0.01756732,10.46964359
00:02.5,-0.005236282,10.25550938
00:02.5,-0.00947322,10.25550938
00:02.5,-0.000881497,10.25550938
00:02.5,0.019352263,10.25550938
00:02.5,0.022363607,10.25550938
00:02.5,0.023298014,10.25550938
00:02.5,0.027080839,10.25550938
00:02.5,0.018506285,10.25550938
00:02.5,0.020778302,10.04137516
00:02.5,0.038107026,10.04137516
00:02.5,0.040166616,10.04137516
00:02.5,0.023146907,10.04137516
00:02.5,0.017910659,9.827240944
00:02.5,0.015475526,9.827240944
00:02.5,0.005653007,9.827240944
00:02.5,-0.003587077,9.827240944
00:02.5,-0.011779861,9.827240944
00:02.5,-0.01861807,9.827240944
00:02.5,-0.028399508,9.827240944
00:02.5,-0.034390751,9.827240944
00:02.5,-0.046120003,9.398973465
00:02.5,-0.032929845,9.398973465
00:02.5,-0.018694604,9.398973465
00:02.5,-0.018246874,9.398973465
00:02.5,-0.00810644,9.613106728
00:02.5,0.074259527,9.613106728
00:02.5,0.129817054,9.613106728
00:02.5,0.010226063,9.613106728
00:02.5,-0.049479742,9.184839249
00:02.5,-0.066803105,9.184839249
00:02.5,-0.082737759,9.184839249
00:02.5,-0.081909642,9.184839249
00:02.5,-0.074236318,9.184839249
00:02.5,-0.003811552,9.184839249
00:02.5,-0.008409746,9.184839249
00:02.5,-0.035746742,9.184839249
00:02.5,-0.033608954,8.970705032
00:02.5,-0.008501964,8.970705032
00:02.5,0.019833285,8.970705032
00:02.5,0.029732607,8.970705032
00:02.5,0.01392381,8.970705032
00:02.5,0.015152372,8.970705032
00:02.5,0.022201393,8.970705032
00:02.5,0.032063466,8.970705032
00:02.5,0.033551969,8.970705032
00:02.5,0.02947142,8.970705032
00:02.5,0.022052258,8.970705032
00:02.5,0.017497186,8.970705032
00:02.5,0.019379234,8.970705032
00:02.5,0.015850782,8.970705032
00:02.5,0.013602111,8.970705032
00:02.5,0.003206179,8.970705032
00:02.5,-0.006824927,8.756570816
00:02.5,-0.002249495,8.756570816
00:02.6,0.001916848,8.756570816
00:02.6,0.00990075,8.756570816
00:02.6,0.01936006,8.756570816
00:02.6,0.015180126,8.756570816
00:02.6,0.020681636,8.756570816
00:02.6,0.017853314,8.756570816
00:02.6,0.018813072,8.756570816
00:02.6,0.048475377,8.756570816
00:02.6,0.096715115,8.756570816
00:02.6,0.025324548,8.756570816
00:02.6,-0.023938291,8.756570816
00:02.6,-0.046317432,8.756570816
00:02.6,-0.054380935,8.756570816
00:02.6,-0.052446932,8.756570816
00:02.6,-0.044013485,8.756570816
00:02.6,-0.022916391,8.756570816
00:02.6,-0.018062914,8.756570816
00:02.6,-0.009932984,8.756570816
00:02.6,-0.018291637,8.756570816
00:02.6,-0.022317059,8.756570816
00:02.6,-0.014079474,8.756570816
00:02.6,-0.021216804,8.756570816
00:02.6,-0.000999564,8.756570816
00:02.6,0.020787884,8.756570816
00:02.6,0.027964011,8.756570816
00:02.6,0.016300391,8.756570816
00:02.6,0.007379356,8.756570816
00:02.6,0.000827466,8.756570816
00:02.6,-0.003710984,8.756570816
00:02.6,-0.006570474,8.756570816
00:02.6,-0.008061403,8.5424366
00:02.6,-0.00399687,8.5424366
00:02.6,-0.001304862,8.5424366
00:02.6,0.004815819,8.5424366
00:02.6,0.0079663,8.756570816
00:02.6,0.013397817,8.756570816
00:02.6,0.015088602,8.756570816
00:02.6,0.023071254,8.756570816
00:02.6,0.01148902,8.5424366
00:02.6,0.006671726,8.5424366
00:02.6,0.006263813,8.5424366
00:02.6,-0.004979182,8.5424366
00:02.6,-0.026309829,8.756570816
00:02.6,-0.042662159,8.756570816
00:02.6,-0.045028821,8.756570816
00:02.6,-0.046963409,8.756570816
00:02.6,-0.025410518,8.5424366
00:02.6,6.91E-05,8.5424366
00:02.6,-0.001026594,8.5424366
00:02.6,-0.00917307,8.5424366
00:02.6,-0.002767264,8.970705032
00:02.6,0.01659351,8.970705032
00:02.6,0.024162216,8.970705032
00:02.6,0.02364194,8.970705032
00:02.6,0.017996132,8.5424366
00:02.6,0.014015322,8.5424366
00:02.6,0.020205237,8.5424366
00:02.6,0.022870749,8.5424366
00:02.6,0.022849102,8.756570816
00:02.6,0.01192592,8.756570816
00:02.6,-0.000403296,8.756570816
00:02.6,-0.003586918,8.756570816
00:02.6,-0.005365058,8.5424366
00:02.6,-0.006089212,8.5424366
00:02.6,-0.014994424,8.5424366
00:02.6,-0.005565214,8.5424366
00:02.6,0.000872882,8.756570816
00:02.6,0.022779813,8.756570816
00:02.6,0.038449783,8.756570816
00:02.6,0.03941752,8.756570816
00:02.6,0.053067874,8.328302383
00:02.6,0.041112188,8.328302383
00:02.6,-0.004023347,8.328302383
00:02.6,-0.03871952,8.328302383
00:02.6,-0.059146263,8.5424366
00:02.6,-0.068385005,8.5424366
00:02.6,-0.069125764,8.5424366
00:02.6,-0.050275255,8.5424366
00:02.6,-0.042762544,8.5424366
00:02.6,-0.042160764,8.5424366
00:02.6,-0.022762945,8.5424366
00:02.6,-0.011010737,8.5424366
00:02.6,-0.000151932,8.328302383
00:02.6,0.013876572,8.328302383
00:02.6,0.024138052,8.328302383
00:02.6,0.03551909,8.328302383
00:02.6,0.037309352,8.328302383
00:02.6,0.046117857,8.328302383
00:02.6,0.048946846,8.328302383
00:02.6,0.047249585,8.328302383
00:02.6,0.03334849,8.5424366
00:02.6,0.026141394,8.5424366
00:02.6,0.014281701,8.5424366
00:02.6,0.000335344,8.5424366
00:02.6,-0.013767311,8.328302383
00:02.6,-0.008755488,8.328302383
00:02.6,-0.010387533,8.328302383
00:02.6,-0.015883494,8.328302383
00:02.6,-0.014174178,8.328302383
00:02.6,-0.012563164,8.328302383
00:02.7,-0.011037857,8.328302383
00:02.7,-0.009591447,8.328302383
00:02.7,-0.008221698,8.114168167
00:02.7,-0.002458729,8.114168167
00:02.7,-0.00791969,8.114168167
00:02.7,-0.010708109,8.114168167
00:02.7,-0.002531061,8.114168167
00:02.7,-0.001758044,8.114168167
00:02.7,-0.00106974,8.114168167
00:02.7,-0.004939695,8.114168167
00:02.7,-0.006697199,8.114168167
00:02.7,0.002042739,8.114168167
00:02.7,0.016409749,8.114168167
00:02.7,0.01931644,8.114168167
00:02.7,-0.003177721,8.114168167
00:02.7,-0.025736263,8.114168167
00:02.7,-0.02809923,8.114168167
00:02.7,-0.017519429,8.114168167
00:02.7,-0.004165173,8.328302383
00:02.7,0.00534188,8.328302383
00:02.7,-0.001767862,8.328302383
00:02.7,0.012990369,8.328302383
00:02.7,0.021784604,8.114168167
00:02.7,0.030373756,8.114168167
00:02.7,0.019796744,8.114168167
00:02.7,0.007123752,8.114168167
00:02.7,0.016531313,8.114168167
00:02.7,0.033852916,8.114168167
00:02.7,0.018182822,8.114168167
00:02.7,0.001315961,8.114168167
00:02.7,0.00298526,8.114168167
00:02.7,0.002268057,8.114168167
00:02.7,0.004493612,8.114168167
00:02.7,-0.000792164,8.114168167
00:02.7,-0.01923527,7.900033951
00:02.7,-0.026031055,7.900033951
00:02.7,-0.015900537,7.900033951
00:02.7,0.039585989,7.900033951
00:02.7,0.045697223,8.114168167
00:02.7,0.020400893,8.114168167
00:02.7,-0.0177649,8.114168167
00:02.7,-0.042417977,8.114168167
00:02.7,-0.065121323,8.328302383
00:02.7,-0.043571178,8.328302383
00:02.7,-0.000818566,8.328302383
00:02.7,0.095811918,8.328302383
00:02.7,0.126014248,8.114168167
00:02.7,0.008320907,8.114168167
00:02.7,-0.082215376,8.114168167
00:02.7,-0.080132827,8.114168167
00:02.7,-0.105664678,8.114168167
00:02.7,-0.108611368,8.114168167
00:02.7,-0.095955342,8.114168167
00:02.7,-0.095768809,8.114168167
00:02.7,-0.083749257,8.328302383
00:02.7,-0.059595037,8.328302383
00:02.7,-0.033393055,8.328302383
00:02.7,0.001627153,8.328302383
00:02.7,0.026009861,8.5424366
00:02.7,0.041897923,8.5424366
00:02.7,0.055581082,8.5424366
00:02.7,0.066393949,8.5424366
00:02.7,0.069509916,8.5424366
00:02.7,0.071499586,8.5424366
00:02.7,0.076377906,8.5424366
00:02.7,0.077258468,8.5424366
00:02.7,0.065733068,8.970705032
00:02.7,0.064679772,8.970705032
00:02.7,0.060257707,8.970705032
00:02.7,0.075609788,8.970705032
00:02.7,0.08259549,8.970705032
00:02.7,0.060135376,8.970705032
00:02.7,0.038445573,8.970705032
00:02.7,0.022731734,8.970705032
00:02.7,0.006876901,8.970705032
00:02.7,-0.008173916,8.970705032
00:02.7,-0.026185507,8.970705032
00:02.7,-0.03552331,8.970705032
00:02.7,-0.052055705,8.970705032
00:02.7,-0.066683277,8.970705032
00:02.7,-0.069295153,8.970705032
00:02.7,-0.072568595,8.970705032
00:02.7,-0.057244215,9.184839249
00:02.7,-0.044653919,9.184839249
00:02.7,-0.03428188,9.184839249
00:02.7,-0.025714392,9.184839249
00:02.7,-0.018622333,9.398973465
00:02.7,-0.008274685,9.398973465
00:02.7,-0.001138803,9.398973465
00:02.7,0.003503284,9.398973465
00:02.7,-0.002693198,9.398973465
00:02.7,-0.005892844,9.398973465
00:02.7,0.002131603,9.398973465
00:02.7,-0.001526177,9.398973465
00:02.7,-0.007408704,9.613106728
00:02.7,-0.009461275,9.613106728
00:02.7,-0.004292252,9.613106728
00:02.7,-0.012890262,9.613106728
00:02.7,-0.015424946,9.398973465
00:02.7,-0.004751705,9.398973465
00:02.8,0.008771704,9.398973465
00:02.8,0.013915121,9.398973465
00:02.8,0.026842935,9.398973465
00:02.8,0.034184285,9.398973465
00:02.8,0.046028707,9.398973465
00:02.8,0.050054047,9.398973465
00:02.8,0.048273273,9.613106728
00:02.8,0.028993389,9.613106728
00:02.8,0.013675914,9.613106728
00:02.8,0.006311751,9.613106728
00:02.8,0.008717976,9.613106728
00:02.8,0.003211309,9.613106728
00:02.8,-0.011291333,9.613106728
00:02.8,-0.025512073,9.613106728
00:02.8,-0.033604052,9.398973465
00:02.8,-0.023463566,9.398973465
00:02.8,-0.020726193,9.398973465
00:02.8,-0.013573058,9.398973465
00:02.8,-0.013143194,9.613106728
00:02.8,-0.007747629,9.613106728
00:02.8,-0.017578984,9.613106728
00:02.8,-0.035583645,9.613106728
00:02.8,-0.020693991,9.398973465
00:02.8,-0.004584963,9.398973465
00:02.8,0.006507783,9.398973465
00:02.8,0.009074897,9.398973465
00:02.8,0.01063229,9.184839249
00:02.8,0.015827958,9.184839249
00:02.8,0.071803935,9.184839249
00:02.8,0.054493334,9.184839249
00:02.8,0.011081637,9.398973465
00:02.8,-0.013343437,9.398973465
00:02.8,-0.028385377,9.398973465
00:02.8,-0.036050219,9.398973465
00:02.8,-0.038084839,9.613106728
00:02.8,-0.027050488,9.613106728
00:02.8,-0.013095337,9.613106728
00:02.8,-0.007311565,9.613106728
00:02.8,0.002072873,9.398973465
00:02.8,0.017331738,9.398973465
00:02.8,0.012291987,9.398973465
00:02.8,0.013071071,9.398973465
00:02.8,0.02166093,9.398973465
00:02.8,0.002683214,9.398973465
00:02.8,-0.027001241,9.398973465
00:02.8,-0.019970896,9.398973465
00:02.8,-0.013203402,9.398973465
00:02.8,-0.011440885,9.398973465
00:02.8,-0.003731455,9.398973465
00:02.8,0.007045425,9.398973465
00:02.8,0.009771885,9.184839249
00:02.8,0.011744586,9.184839249
00:02.8,0.008506428,9.184839249
00:02.8,0.011245727,9.184839249
00:02.8,0.017273305,9.184839249
00:02.8,0.015618408,9.184839249
00:02.8,0.009214001,9.184839249
00:02.8,0.009288049,9.184839249
00:02.8,0.008696072,9.184839249
00:02.8,0.007605273,9.184839249
00:02.8,-0.002773562,9.184839249
00:02.8,-0.008960685,9.184839249
00:02.8,-0.007481988,9.184839249
00:02.8,-0.00585179,9.184839249
00:02.8,-0.008686344,9.184839249
00:02.8,-0.009419898,9.184839249
00:02.8,-0.004211926,8.970705032
00:02.8,0.008691384,8.970705032
00:02.8,0.025031442,8.970705032
00:02.8,0.03272637,8.970705032
00:02.8,0.033979643,8.970705032
00:02.8,0.04407265,8.970705032
00:02.8,0.040078606,8.970705032
00:02.8,0.036090195,8.970705032
00:02.8,0.013899903,8.756570816
00:02.8,-0.013364278,8.756570816
00:02.8,-0.050286688,8.756570816
00:02.8,-0.05357416,8.756570816
00:02.8,-0.03993021,8.970705032
00:02.8,-0.030135803,8.970705032
00:02.8,-0.018747212,8.970705032
00:02.8,-0.029535824,8.970705032
00:02.8,-0.039106485,8.756570816
00:02.8,-0.037593458,8.756570816
00:02.8,-0.028883165,8.756570816
00:02.8,-0.016071262,8.756570816
00:02.8,-0.001560529,8.756570816
00:02.8,0.017317792,8.756570816
00:02.8,0.01024853,8.756570816
00:02.8,-0.003120306,8.756570816
00:02.8,-0.010058342,8.756570816
00:02.8,-0.007737454,8.756570816
00:02.8,-0.013160626,8.756570816
00:02.8,-0.013582285,8.756570816
00:02.8,-0.010588787,8.756570816
00:02.8,-0.00100917,8.756570816
00:02.8,-0.001498973,8.756570816
00:02.8,0.00997361,8.756570816
00:02.8,0.018812781,8.756570816
00:02.8,0.016209638,8.756570816
00:02.9,0.029118117,8.756570816
00:02.9,0.036652323,8.756570816
00:02.9,0.039818786,8.5424366
00:02.9,0.030598223,8.5424366
00:02.9,0.032110021,8.5424366
00:02.9,0.030637193,8.5424366
00:02.9,0.027000831,8.5424366
00:02.9,0.026385304,8.5424366
00:02.9,0.018255619,8.5424366
00:02.9,0.001405043,8.5424366
00:02.9,-0.014971138,8.5424366
00:02.9,-0.020605519,8.5424366
00:02.9,-0.019034352,8.5424366
00:02.9,-0.017529715,8.5424366
00:02.9,-0.020527301,8.328302383
00:02.9,-0.016862869,8.328302383
00:02.9,-0.009284962,8.328302383
00:02.9,-0.004378508,8.328302383
00:02.9,0.007428424,8.5424366
00:02.9,0.008852398,8.5424366
00:02.9,0.00812187,8.5424366
00:02.9,0.005982468,8.5424366
00:02.9,-0.001434861,8.328302383
00:02.9,-0.002513407,8.328302383
00:02.9,-0.008592375,8.328302383
00:02.9,-0.008179487,8.328302383
00:02.9,-0.026130028,8.328302383
00:02.9,-0.022077495,8.328302383
00:02.9,-0.013602945,8.328302383
00:02.9,-0.002986421,8.328302383
00:02.9,0.003585584,8.114168167
00:02.9,0.011550114,8.114168167
00:02.9,-0.007307796,8.114168167
00:02.9,-0.01392758,8.114168167
00:02.9,-0.007806472,8.114168167
00:02.9,0.00568759,8.114168167
00:02.9,0.009030016,8.114168167
00:02.9,0.014727741,8.114168167
00:02.9,0.003293434,8.114168167
00:02.9,0.000264537,8.114168167
00:02.9,-0.006302741,8.114168167
00:02.9,-0.005411334,8.114168167
00:02.9,4.13E-05,7.900033951
00:02.9,0.00781075,7.900033951
00:02.9,-0.006141884,7.900033951
00:02.9,-0.018607996,7.900033951
00:02.9,-0.019843075,7.900033951
00:02.9,-0.018274216,7.900033951
00:02.9,-0.041652806,7.900033951
00:02.9,-0.037296828,7.900033951
00:02.9,0.002117267,7.900033951
00:02.9,0.019312466,7.900033951
00:02.9,0.030237425,7.900033951
00:02.9,0.031604033,7.900033951
00:02.9,0.031148015,7.900033951
00:02.9,0.033729173,7.900033951
00:02.9,0.028564656,7.900033951
00:02.9,0.018739782,7.900033951
00:02.9,0.015601863,7.900033951
00:02.9,0.012095547,7.900033951
00:02.9,0.003978867,7.900033951
00:02.9,-0.001885995,7.900033951
00:02.9,-0.005903815,7.471765995
00:02.9,-0.012899723,7.471765995
00:02.9,-0.012039248,7.471765995
00:02.9,-0.015289481,7.471765995
00:02.9,-0.007179134,7.471765995
00:02.9,-0.006195744,7.471765995
00:02.9,-0.000643945,7.471765995
00:02.9,0.002726852,7.471765995
00:02.9,0.004415056,7.471765995
00:02.9,0.009319636,7.471765995
00:02.9,0.006660349,7.471765995
00:02.9,0.008439764,7.471765995
00:02.9,0.008146781,7.471765995
00:02.9,-0.002484913,7.471765995
00:02.9,-0.014030932,7.471765995
00:02.9,-0.01602323,7.471765995
00:02.9,-0.011821064,7.257631779
00:02.9,-0.008539389,7.257631779
00:02.9,-0.01047373,7.257631779
00:02.9,-0.024218488,7.257631779
00:02.9,-0.012309955,7.471765995
00:02.9,0.000992545,7.471765995
00:02.9,0.005053627,7.471765995
00:02.9,0.012029115,7.471765995
00:02.9,0.015566976,7.043497562
00:02.9,0.020976076,7.043497562
00:02.9,0.017827984,7.043497562
00:02.9,0.018423533,7.043497562
00:02.9,0.016500734,7.257631779
00:02.9,0.008468576,7.257631779
00:02.9,-0.007227595,7.257631779
00:02.9,-0.021705074,7.257631779
00:02.9,-0.029442109,6.829363346
00:02.9,-0.03200965,6.829363346
00:02.9,-0.02629083,6.829363346
00:02.9,-0.020108758,6.829363346
00:02.9,-0.018339973,6.829363346
00:02.9,-0.010160483,6.829363346
00:03.0,0.001431315,6.829363346
00:03.0,0.014151474,6.829363346
00:03.0,0.021857245,6.829363346
00:03.0,0.021123866,6.829363346
00:03.0,0.02401243,6.829363346
00:03.0,0.028561501,6.829363346
00:03.0,0.028868096,6.61522913
00:03.0,0.017201858,6.61522913
00:03.0,0.007924355,6.61522913
00:03.0,-0.003710885,6.61522913
00:03.0,-0.011297362,6.829363346
00:03.0,-0.002233417,6.829363346
00:03.0,0.011695765,6.829363346
00:03.0,0.004788119,6.829363346
00:03.0,-0.014356164,6.829363346
00:03.0,-0.007841411,6.829363346
00:03.0,-0.013012212,6.829363346
00:03.0,-0.015781967,6.829363346
00:03.0,-0.007712688,6.61522913
00:03.0,0.006345541,6.61522913
00:03.0,0.00035749,6.61522913
00:03.0,-0.008415689,6.61522913
00:03.0,-0.009067031,6.61522913
00:03.0,-0.009055578,6.61522913
00:03.0,-0.017456418,6.61522913
00:03.0,-0.021052897,6.61522913
00:03.0,-0.021078136,6.829363346
00:03.0,-0.018581307,6.829363346
00:03.0,-0.023382749,6.829363346
00:03.0,-0.013918024,6.829363346
00:03.0,0.00818941,6.61522913
00:03.0,0.013706545,6.61522913
00:03.0,0.017474189,6.61522913
00:03.0,0.019701088,6.61522913
00:03.0,0.029545611,6.829363346
00:03.0,0.029411074,6.829363346
00:03.0,0.031769205,6.829363346
00:03.0,0.026066732,6.829363346
00:03.0,0.011095499,6.829363346
00:03.0,0.000535955,6.829363346
00:03.0,-0.006459361,6.829363346
00:03.0,-0.010628918,6.829363346
00:03.0,-0.012610957,7.043497562
00:03.0,-0.004009737,7.043497562
00:03.0,0.001369079,7.043497562
00:03.0,-0.000215902,7.043497562
00:03.0,-0.001466946,7.257631779
00:03.0,0.002059236,7.257631779
00:03.0,0.003661263,7.257631779
00:03.0,0.003865723,7.257631779
0:00:03,-0.001359061,7.257631779
00:03.0,-0.004981363,7.257631779
00:03.0,0.001671742,7.257631779
00:03.0,-0.003931577,7.257631779
00:03.0,-0.012026819,7.257631779
00:03.0,-0.007373104,7.257631779
00:03.0,0.000264337,7.257631779
00:03.0,0.004560069,7.257631779
00:03.0,0.006360931,7.471765995
00:03.0,0.006376473,7.471765995
00:03.0,0.000721122,7.471765995
00:03.0,-0.003459262,7.471765995
00:03.0,-0.006347146,7.471765995
00:03.0,-0.017067645,7.471765995
00:03.0,-0.004572834,7.471765995
00:03.0,0.034459673,7.471765995
00:03.0,0.00527237,7.471765995
00:03.0,0.053173907,7.471765995
00:03.0,0.089458205,7.471765995
00:03.0,0.127512082,7.471765995
00:03.0,0.085316546,7.685900211
00:03.0,-0.021487406,7.685900211
00:03.0,-0.091265596,7.685900211
00:03.0,-0.104515322,7.685900211
00:03.0,-0.094323069,7.685900211
00:03.0,-0.069597721,7.685900211
00:03.0,-0.064144306,7.685900211
00:03.0,-0.096893467,7.685900211
00:03.0,-0.121836752,7.685900211
00:03.0,-0.115608893,7.685900211
00:03.0,-0.093507729,7.685900211
00:03.0,-0.06200359,7.685900211
00:03.0,-0.039637636,7.685900211
00:03.0,-0.014808621,7.685900211
00:03.0,0.010102284,7.685900211
00:03.0,0.037776113,7.685900211
00:03.0,0.064741045,7.685900211
00:03.0,0.088530727,7.685900211
00:03.0,0.103057936,7.685900211
00:03.0,0.105141327,7.685900211
00:03.0,0.102755889,7.471765995
00:03.0,0.105567127,7.471765995
00:03.0,0.100988477,7.471765995
00:03.0,0.068537489,7.471765995
00:03.0,0.038774289,7.685900211
00:03.0,0.03940209,7.685900211
00:03.0,0.03540276,7.685900211
00:03.0,0.028179042,7.685900211
00:03.0,0.018938504,7.685900211
00:03.0,0.004226152,7.685900211
00:03.1,0.000487477,7.685900211
00:03.1,-0.001049817,7.685900211
00:03.1,-0.010387632,7.685900211
00:03.1,-0.014924651,7.685900211
00:03.1,-0.020734461,7.685900211
00:03.1,-0.031316925,7.685900211
00:03.1,-0.039275561,7.471765995
00:03.1,-0.044657893,7.471765995
00:03.1,-0.043137629,7.471765995
00:03.1,-0.05054789,7.471765995
00:03.1,-0.062202599,7.257631779
00:03.1,-0.047825824,7.257631779
00:03.1,-0.049508117,7.257631779
00:03.1,-0.046737596,7.257631779
00:03.1,-0.04526002,7.257631779
00:03.1,-0.03950005,7.257631779
00:03.1,-0.021997949,7.257631779
00:03.1,-0.01180092,7.257631779
00:03.1,0.006819248,7.257631779
00:03.1,0.0201157,7.257631779
00:03.1,0.019978797,7.257631779
00:03.1,0.020518132,7.257631779
00:03.1,0.030260559,7.043497562
00:03.1,0.035554424,7.043497562
00:03.1,0.032828387,7.043497562
00:03.1,0.025088556,7.043497562
00:03.1,0.032574333,7.043497562
00:03.1,0.030391766,7.043497562
00:03.1,0.017612891,7.043497562
00:03.1,0.003701733,7.043497562
00:03.1,-0.000817507,6.829363346
00:03.1,-0.003709264,6.829363346
00:03.1,-0.00981805,6.829363346
00:03.1,-0.017256442,6.829363346
00:03.1,-0.020170389,6.829363346
00:03.1,-0.006388772,6.829363346
00:03.1,-0.001432947,6.829363346
00:03.1,0.006664597,6.829363346
00:03.1,0.015878651,7.043497562
00:03.1,0.029210679,7.043497562
00:03.1,0.025571991,7.043497562
00:03.1,0.024914961,7.043497562
00:03.1,0.012313407,6.829363346
00:03.1,0.006691969,6.829363346
00:03.1,0.001165099,6.829363346
00:03.1,-0.003938892,6.829363346
00:03.1,-0.003916895,6.61522913
00:03.1,-0.005291874,6.61522913
00:03.1,-0.011899184,6.61522913
00:03.1,-0.021047553,6.61522913
00:03.1,-0.02625872,6.61522913
00:03.1,-0.005950714,6.61522913
00:03.1,0.005818864,6.61522913
00:03.1,0.006743805,6.61522913
00:03.1,0.005304204,6.829363346
00:03.1,0.002429894,6.829363346
00:03.1,-0.023504544,6.829363346
00:03.1,-0.043056376,6.829363346
00:03.1,-0.042995341,6.61522913
00:03.1,-0.02141737,6.61522913
00:03.1,-0.015096889,6.61522913
00:03.1,-0.013897469,6.61522913
00:03.1,-0.011176423,6.61522913
00:03.1,-0.003037179,6.61522913
00:03.1,0.007845138,6.61522913
00:03.1,0.014975139,6.61522913
00:03.1,0.028027793,6.61522913
00:03.1,0.043246098,6.61522913
00:03.1,0.053434677,6.61522913
00:03.1,0.054464165,6.61522913
00:03.1,0.057973664,6.829363346
00:03.1,0.048390776,6.829363346
00:03.1,0.004033886,6.829363346
00:03.1,-0.035496287,6.829363346
00:03.1,-0.059323151,6.61522913
00:03.1,-0.066309854,6.61522913
00:03.1,-0.070517719,6.61522913
00:03.1,-0.062770516,6.61522913
00:03.1,-0.056449857,6.829363346
00:03.1,-0.046210255,6.829363346
00:03.1,-0.033692673,6.829363346
00:03.1,-0.020228164,6.829363346
00:03.1,-0.002394743,6.61522913
00:03.1,0.012340318,6.61522913
00:03.1,0.023963705,6.61522913
00:03.1,0.028100369,6.61522913
00:03.1,0.027135177,6.61522913
00:03.1,0.036376309,6.61522913
00:03.1,0.05069444,6.61522913
00:03.1,0.057330422,6.61522913
00:03.1,0.075861655,6.829363346
00:03.1,0.085572682,6.829363346
00:03.1,0.052035768,6.829363346
00:03.1,0.00763705,6.829363346
00:03.1,-0.017381761,6.829363346
00:03.1,-0.0148854,6.829363346
00:03.1,-0.000255694,6.829363346
00:03.1,-0.024389224,6.829363346
00:03.1,-0.043042537,7.043497562
00:03.1,-0.042822294,7.043497562
00:03.2,-0.035074383,7.043497562
00:03.2,-0.014046546,7.043497562
00:03.2,0.004452702,6.829363346
00:03.2,-0.011599671,6.829363346
00:03.2,-0.011399099,6.829363346
00:03.2,-0.001132695,6.829363346
00:03.2,-0.003487622,6.829363346
00:03.2,0.009080298,6.829363346
00:03.2,0.011651243,6.829363346
00:03.2,0.007739583,6.829363346
00:03.2,-0.00436108,6.829363346
00:03.2,-0.002449811,6.829363346
00:03.2,-0.014479741,6.829363346
00:03.2,-0.029282602,6.829363346
00:03.2,-0.026161371,6.829363346
00:03.2,-0.011972083,6.829363346
00:03.2,0.003474216,6.829363346
00:03.2,0.063055776,6.829363346
00:03.2,0.174786791,6.61522913
00:03.2,0.100352913,6.61522913
00:03.2,0.024638435,6.61522913
00:03.2,-0.023369331,6.61522913
00:03.2,-0.050154507,6.61522913
00:03.2,-0.070112817,6.61522913
00:03.2,-0.083373144,6.61522913
00:03.2,-0.076943971,6.61522913
00:03.2,-0.07594756,6.829363346
00:03.2,-0.059407465,6.829363346
00:03.2,-0.051820006,6.829363346
00:03.2,-0.031621929,6.829363346
00:03.2,-0.018293928,6.61522913
00:03.2,-0.005386785,6.61522913
00:03.2,0.00197255,6.61522913
00:03.2,0.014464278,6.61522913
00:03.2,0.037978183,6.61522913
00:03.2,0.04796477,6.61522913
00:03.2,0.043876357,6.61522913
00:03.2,0.035581123,6.61522913
00:03.2,0.038490832,6.61522913
00:03.2,0.043058466,6.61522913
00:03.2,0.074503459,6.61522913
00:03.2,0.082761273,6.61522913
00:03.2,0.048082024,6.829363346
00:03.2,0.020746171,6.829363346
00:03.2,-0.004640532,6.829363346
00:03.2,-0.017802227,6.829363346
00:03.2,-0.013366357,6.61522913
00:03.2,-0.025429705,6.61522913
00:03.2,-0.028451938,6.61522913
00:03.2,-0.020989994,6.61522913
00:03.2,-0.003169967,6.829363346
00:03.2,-0.003041239,6.829363346
00:03.2,-0.004856741,6.829363346
00:03.2,0.010140728,6.829363346
00:03.2,0.029350381,6.61522913
00:03.2,-0.031578168,6.61522913
00:03.2,-0.068660371,6.61522913
00:03.2,-0.078111328,6.61522913
00:03.2,-0.086705238,6.829363346
00:03.2,-0.097255334,6.829363346
00:03.2,-0.093188994,6.829363346
00:03.2,-0.083531313,6.829363346
00:03.2,-0.0475039,7.043497562
00:03.2,-0.002006249,7.043497562
00:03.2,0.036750175,7.043497562
00:03.2,0.08576075,7.043497562
00:03.2,0.109066553,7.043497562
00:03.2,0.113418847,7.043497562
00:03.2,0.113398567,7.043497562
00:03.2,0.104770862,7.043497562
00:03.2,0.085721672,6.829363346
00:03.2,0.056228708,6.829363346
00:03.2,0.035412781,6.829363346
00:03.2,0.020993978,6.829363346
00:03.2,0.002232855,7.043497562
00:03.2,-0.022332229,7.043497562
00:03.2,-0.039327633,7.043497562
00:03.2,-0.045475855,7.043497562
00:03.2,-0.057500739,7.257631779
00:03.2,-0.044639561,7.257631779
00:03.2,-0.039625518,7.257631779
00:03.2,-0.057298958,7.257631779
00:03.2,-0.055237733,7.257631779
00:03.2,-0.045036469,7.257631779
00:03.2,-0.021170717,7.257631779
00:03.2,-0.004122498,7.257631779
00:03.2,-0.001533432,7.257631779
00:03.2,0.005540659,7.257631779
00:03.2,0.014757779,7.257631779
00:03.2,0.015422693,7.257631779
00:03.2,0.006213435,7.257631779
00:03.2,-0.008216095,7.257631779
00:03.2,-0.002012196,7.257631779
00:03.2,-0.010484269,7.257631779
00:03.2,-0.017997427,7.685900211
00:03.2,-0.001564143,7.685900211
00:03.2,0.005801235,7.685900211
00:03.2,0.007003943,7.685900211
00:03.2,0.00881454,7.685900211
00:03.2,0.015280645,7.685900211
00:03.3,0.032832365,7.685900211
00:03.3,0.041796908,7.685900211
00:03.3,0.030770732,7.685900211
00:03.3,0.021506317,7.685900211
00:03.3,0.018282657,7.685900211
00:03.3,0.018726883,7.685900211
00:03.3,0.016568618,7.900033951
00:03.3,0.012693173,7.900033951
00:03.3,-0.005582316,7.900033951
00:03.3,-0.022125702,7.900033951
00:03.3,-0.00912392,7.900033951
00:03.3,0.00290829,7.900033951
00:03.3,-0.013672077,7.900033951
00:03.3,-0.037202895,7.900033951
00:03.3,-0.035618041,7.900033951
00:03.3,-0.031798027,7.900033951
00:03.3,-0.026515104,7.900033951
00:03.3,-0.002527964,7.900033951
00:03.3,0.021895444,7.900033951
00:03.3,0.030757628,7.900033951
00:03.3,0.028944692,7.900033951
00:03.3,0.00697059,7.900033951
00:03.3,-0.003120429,8.114168167
00:03.3,0.003897954,8.114168167
00:03.3,0.002774846,8.114168167
00:03.3,0.001184597,8.114168167
00:03.3,-0.018481705,8.114168167
00:03.3,-0.011444639,8.114168167
00:03.3,-0.001999969,8.114168167
00:03.3,-0.000843129,8.114168167
00:03.3,-0.004838766,8.328302383
00:03.3,-0.002616307,8.328302383
00:03.3,-0.010167662,8.328302383
00:03.3,-0.018396176,8.328302383
00:03.3,-0.012622077,8.114168167
00:03.3,0.001397236,8.114168167
00:03.3,0.010290381,8.114168167
00:03.3,0.024109624,8.114168167
00:03.3,0.021526994,8.114168167
00:03.3,0.013346654,8.114168167
00:03.3,0.011225244,8.114168167
00:03.3,-0.005069575,8.114168167
00:03.3,-0.015118849,8.114168167
00:03.3,-0.029223038,8.114168167
00:03.3,-0.03074545,8.114168167
00:03.3,-0.028481886,8.114168167
00:03.3,-0.010255712,7.900033951
00:03.3,0.007369293,7.900033951
00:03.3,0.014100908,7.900033951
00:03.3,0.013466164,7.900033951
00:03.3,0.012739385,8.114168167
00:03.3,0.011895558,8.114168167
00:03.3,0.006457722,8.114168167
00:03.3,0.012048417,8.114168167
00:03.3,0.014786059,8.328302383
00:03.3,0.010870467,8.328302383
00:03.3,0.003083595,8.328302383
00:03.3,-0.001964116,8.328302383
00:03.3,-0.004884869,8.114168167
00:03.3,-0.010670391,8.114168167
00:03.3,-0.004144705,8.114168167
00:03.3,0.00042807,8.114168167
00:03.3,0.007867011,8.114168167
00:03.3,0.011814283,8.114168167
00:03.3,0.013107501,8.114168167
00:03.3,-0.000948553,8.114168167
00:03.3,-0.009732446,7.900033951
00:03.3,-0.005471923,7.900033951
00:03.3,-0.006986238,7.900033951
00:03.3,0.001600952,7.900033951
00:03.3,0.006617561,8.114168167
00:03.3,0.008905139,8.114168167
00:03.3,0.004711049,8.114168167
00:03.3,-0.003159276,8.114168167
00:03.3,-0.00809111,7.900033951
00:03.3,-0.006236117,7.900033951
00:03.3,-0.013750048,7.900033951
00:03.3,-0.008256142,7.900033951
00:03.3,-0.004137863,7.900033951
00:03.3,-0.001160995,7.900033951
00:03.3,0.000882051,7.900033951
00:03.3,-0.006767991,7.900033951
00:03.3,-0.010607994,8.114168167
00:03.3,-0.002673004,8.114168167
00:03.3,0.002869488,8.114168167
00:03.3,0.001979773,8.114168167
00:03.3,0.010657108,8.114168167
00:03.3,0.010870781,8.114168167
00:03.3,0.010235761,8.114168167
00:03.3,0.013474655,8.114168167
00:03.3,0.009658227,7.900033951
00:03.3,0.001722621,7.900033951
00:03.3,0.000868751,7.900033951
00:03.3,-0.009039803,7.900033951
00:03.3,-0.010087504,8.114168167
00:03.3,-0.001043036,8.114168167
00:03.3,0.013361909,8.114168167
00:03.3,0.020621901,8.114168167
00:03.3,0.022566035,7.900033951
00:03.3,0.020736476,7.900033951
00:03.4,-0.001470908,7.900033951
00:03.4,-0.034211107,7.900033951
00:03.4,-0.047728211,7.900033951
00:03.4,-0.016402433,7.900033951
00:03.4,0.012911332,7.900033951
00:03.4,0.011397446,7.900033951
00:03.4,-0.022373816,7.900033951
00:03.4,-0.027828187,7.900033951
00:03.4,-0.02405645,7.900033951
00:03.4,-0.019088104,7.900033951
00:03.4,-0.004563364,7.685900211
00:03.4,0.014648276,7.685900211
00:03.4,0.017012326,7.685900211
00:03.4,0.008716691,7.685900211
00:03.4,-0.000944012,7.685900211
00:03.4,0.002892959,7.685900211
00:03.4,0.00122307,7.685900211
00:03.4,0.009779505,7.685900211
00:03.4,0.014783903,7.685900211
00:03.4,0.017003283,7.685900211
00:03.4,0.008166254,7.685900211
00:03.4,-0.002275662,7.685900211
00:03.4,0.00066873,7.900033951
00:03.4,0.007038914,7.900033951
00:03.4,0.028244438,7.900033951
00:03.4,0.033863846,7.900033951
00:03.4,0.002133453,7.685900211
00:03.4,-0.004971622,7.685900211
00:03.4,-0.014302237,7.685900211
00:03.4,-0.028507059,7.685900211
00:03.4,-0.030675285,7.685900211
00:03.4,-0.024907641,7.685900211
00:03.4,-0.023404669,7.685900211
00:03.4,-0.015347669,7.685900211
00:03.4,-0.00374428,7.471765995
00:03.4,0.013580021,7.471765995
00:03.4,0.019324606,7.471765995
00:03.4,0.026219161,7.471765995
00:03.4,0.019463798,7.471765995
00:03.4,0.018130001,7.471765995
00:03.4,0.006552172,7.471765995
00:03.4,0.007515925,7.471765995
00:03.4,0.006971119,7.471765995
00:03.4,0.005415896,7.471765995
00:03.4,-0.01015429,7.471765995
00:03.4,-0.023868004,7.471765995
00:03.4,-0.017058931,7.471765995
00:03.4,-0.020465473,7.471765995
00:03.4,-0.016113607,7.471765995
00:03.4,-0.002701347,7.471765995
00:03.4,0.006178256,7.257631779
00:03.4,0.020393619,7.257631779
00:03.4,0.022937743,7.257631779
00:03.4,0.022294048,7.257631779
00:03.4,0.028382532,7.471765995
00:03.4,0.024199503,7.471765995
00:03.4,0.018190742,7.471765995
00:03.4,0.02467588,7.471765995
00:03.4,0.015410413,7.257631779
00:03.4,-0.01640363,7.257631779
00:03.4,-0.032248184,7.257631779
00:03.4,-0.045560319,7.257631779
00:03.4,-0.055611193,7.257631779
00:03.4,-0.057590753,7.257631779
00:03.4,-0.053668447,7.257631779
00:03.4,-0.036748368,7.257631779
00:03.4,-0.021718344,7.257631779
00:03.4,-0.004257416,7.257631779
00:03.4,0.026779085,7.257631779
00:03.4,0.01396957,7.257631779
00:03.4,0.015726721,7.471765995
00:03.4,0.017198384,7.471765995
00:03.4,0.018248234,7.471765995
00:03.4,0.018798908,7.471765995
00:03.4,0.023292784,7.257631779
00:03.4,0.007184447,7.257631779
00:03.4,0.00670088,7.257631779
00:03.4,0.011272431,7.257631779
00:03.4,0.00051348,7.257631779
00:03.4,-0.005224108,7.257631779
00:03.4,0.00611718,7.257631779
00:03.4,-1.08E-05,7.257631779
00:03.4,-0.00282919,7.471765995
00:03.4,-0.003320552,7.471765995
00:03.4,0.015602046,7.471765995
00:03.4,0.03555996,7.471765995
00:03.4,0.022594269,7.257631779
00:03.4,0.035051197,7.257631779
00:03.4,0.030090004,7.257631779
00:03.4,0.018905926,7.257631779
00:03.4,0.009011841,7.471765995
00:03.4,0.004997517,7.471765995
00:03.4,0.000246503,7.471765995
00:03.4,-0.018096721,7.471765995
00:03.4,-0.03406392,7.257631779
00:03.4,-0.033407893,7.257631779
00:03.4,-0.031239042,7.257631779
00:03.4,-0.023500878,7.257631779
00:03.4,-0.021700809,7.471765995
00:03.4,-0.014453608,7.471765995
00:03.5,-0.008784113,7.471765995
00:03.5,-0.004433667,7.471765995
00:03.5,-0.005649297,7.471765995
00:03.5,0.007847448,7.471765995
00:03.5,0.006708828,7.471765995
00:03.5,0.019036936,7.471765995
00:03.5,0.033788286,7.471765995
00:03.5,0.052724406,7.471765995
00:03.5,0.02260131,7.471765995
00:03.5,-0.030709205,7.471765995
00:03.5,-0.03498375,7.471765995
00:03.5,-0.021935942,7.471765995
00:03.5,-0.017085014,7.471765995
00:03.5,0.004911917,7.471765995
00:03.5,-0.004878307,7.685900211
00:03.5,0.033931073,7.685900211
00:03.5,0.053789888,7.685900211
00:03.5,0.046131372,7.685900211
00:03.5,-0.023072241,7.471765995
00:03.5,-0.038553238,7.471765995
00:03.5,-0.046254236,7.471765995
00:03.5,-0.061359059,7.471765995
00:03.5,-0.051985633,7.685900211
00:03.5,-0.036682449,7.685900211
00:03.5,0.012778461,7.685900211
00:03.5,0.029468721,7.685900211
00:03.5,-0.015859762,7.685900211
00:03.5,-0.023175834,7.685900211
00:03.5,-0.024091873,7.685900211
00:03.5,-0.02949982,7.685900211
00:03.5,-0.009783206,7.471765995
00:03.5,0.01489425,7.471765995
00:03.5,0.026978888,7.471765995
00:03.5,0.021163158,7.471765995
00:03.5,0.018207295,7.685900211
00:03.5,0.017138349,7.685900211
00:03.5,0.035075109,7.685900211
00:03.5,0.067100964,7.685900211
00:03.5,0.095070973,7.685900211
00:03.5,0.040749628,7.685900211
00:03.5,0.011889571,7.685900211
00:03.5,-0.00363709,7.685900211
00:03.5,-0.023160573,7.685900211
00:03.5,-0.025335927,7.685900211
00:03.5,-0.029918458,7.685900211
00:03.5,-0.048666835,7.685900211
00:03.5,-0.033559289,7.900033951
00:03.5,-0.016571511,7.900033951
00:03.5,-0.008651864,7.900033951
00:03.5,0.051294483,7.900033951
00:03.5,0.05204913,8.114168167
00:03.5,0.038217422,8.114168167
00:03.5,0.011642715,8.114168167
00:03.5,-0.007203463,8.114168167
00:03.5,-0.019674657,8.114168167
00:03.5,-0.035927106,8.114168167
00:03.5,-0.039226219,8.114168167
00:03.5,-0.04725191,8.114168167
00:03.5,-0.047872957,8.114168167
00:03.5,-0.047698811,8.114168167
00:03.5,-0.041848075,8.114168167
00:03.5,-0.023407524,8.114168167
00:03.5,-0.007373009,8.114168167
00:03.5,0.001587163,8.114168167
00:03.5,0.014548895,8.114168167
00:03.5,0.02879601,8.114168167
00:03.5,0.033402719,8.5424366
00:03.5,0.040347759,8.5424366
00:03.5,0.056607395,8.5424366
00:03.5,0.058521613,8.5424366
00:03.5,0.037309304,8.5424366
00:03.5,0.016726794,8.5424366
00:03.5,0.011468871,8.5424366
00:03.5,0.029199909,8.5424366
00:03.5,0.063356251,8.5424366
00:03.5,0.06772992,8.5424366
00:03.5,0.038990069,8.5424366
00:03.5,0.00073261,8.5424366
00:03.5,-0.035771824,8.756570816
00:03.5,-0.063295133,8.756570816
00:03.5,-0.059923671,8.756570816
00:03.5,-0.073133126,8.756570816
00:03.5,-0.072068833,9.184839249
00:03.5,-0.052517366,9.184839249
00:03.5,-0.036103651,9.184839249
00:03.5,-0.031454373,9.184839249
00:03.5,-0.029405,9.398973465
00:03.5,-0.010712828,9.398973465
00:03.5,-0.001106616,9.398973465
00:03.5,-0.002195239,9.398973465
00:03.5,0.008361569,9.613106728
00:03.5,0.047495,9.613106728
00:03.5,0.068799689,9.613106728
00:03.5,0.063072182,9.613106728
00:03.5,0.053934459,9.827240944
00:03.5,0.047232985,9.827240944
00:03.5,0.015062011,9.827240944
00:03.5,-0.012243435,9.827240944
00:03.5,-0.002820799,10.46964359
00:03.5,0.001275057,10.46964359
00:03.6,-0.01626965,10.46964359
00:03.6,-0.036423188,10.46964359
00:03.6,-0.042568635,10.89791203
00:03.6,-0.034627728,10.89791203
00:03.6,-0.022814788,10.89791203
00:03.6,-0.013838857,10.89791203
00:03.6,-0.007173733,11.54031467
00:03.6,-0.006841762,11.54031467
00:03.6,-0.001319745,11.54031467
00:03.6,-0.006458485,11.54031467
00:03.6,-0.008559846,12.18271637
00:03.6,-0.003966397,12.18271637
00:03.6,-0.004508553,12.18271637
00:03.6,-0.003527877,12.18271637
00:03.6,0.002896351,13.03925323
00:03.6,0.016588539,13.03925323
00:03.6,0.028882217,13.03925323
00:03.6,0.025482388,13.03925323
00:03.6,0.012488556,13.46752167
00:03.6,0.003573963,13.46752167
00:03.6,0.020247329,13.46752167
00:03.6,0.010536507,13.46752167
00:03.6,-0.005647411,14.10992336
00:03.6,-0.015359444,14.10992336
00:03.6,-0.011132283,14.10992336
00:03.6,-0.020986915,14.10992336
00:03.6,-0.024863297,14.96646023
00:03.6,-0.002029383,14.96646023
00:03.6,0.00832511,14.96646023
00:03.6,0.014539856,14.96646023
00:03.6,-0.013787452,15.60886288
00:03.6,-0.051530421,15.60886288
00:03.6,-0.032795262,15.60886288
00:03.6,0.010352325,15.60886288
00:03.6,0.028774889,16.46539879
00:03.6,0.043588348,16.46539879
00:03.6,0.049888555,16.46539879
00:03.6,0.040837176,16.46539879
00:03.6,0.036054894,17.10780144
00:03.6,0.033753239,17.10780144
00:03.6,0.01920234,17.10780144
00:03.6,0.011491867,17.10780144
00:03.6,-0.005070637,17.75020409
00:03.6,-0.012235405,17.75020409
00:03.6,-0.021947445,17.75020409
00:03.6,-0.032184768,17.75020409
00:03.6,-0.037031982,18.39260674
00:03.6,-0.024315951,18.39260674
00:03.6,-0.019602446,18.39260674
00:03.6,-0.019945104,18.39260674
00:03.6,-0.027542036,19.03500938
00:03.6,-0.02955221,19.03500938
00:03.6,-0.009635409,19.03500938
00:03.6,0.031046862,19.03500938
00:03.6,0.049147498,19.67741013
00:03.6,0.0378136,19.67741013
00:03.6,0.026883941,19.67741013
