Time,Bicep,Wrist
0:00:00,-5.324984074,-42.64011002
00:00.0,-2.699482441,-21.64758873
00:00.0,-0.740370095,-5.975796223
00:00.0,0.655847013,5.195624828
00:00.0,1.583901525,12.62414837
00:00.0,2.125344753,17.00644112
00:00.0,2.364247084,18.96127129
00:00.0,2.368959188,19.02052116
00:00.0,2.204088926,17.66672897
00:00.0,1.910663843,15.32883358
00:00.0,1.540428638,12.37534142
00:00.0,1.130537748,9.093564034
00:00.0,0.715791404,5.738926411
00:00.0,0.309048712,2.502119303
00:00.0,-0.05976966,-0.476456165
00:00.0,-0.388873667,-3.090981722
00:00.0,-0.658218622,-5.268214703
00:00.0,-0.870190978,-6.978153706
00:00.0,-1.023298502,-8.210726738
00:00.0,-1.118885279,-8.978274345
00:00.0,-1.160547972,-9.310912132
00:00.0,-1.158058763,-9.256629944
00:00.0,-1.106773973,-8.852716446
00:00.0,-1.025634646,-8.180668831
00:00.0,-0.915462077,-7.292172432
00:00.0,-0.788778722,-6.237660885
00:00.0,-0.651061594,-5.087846279
00:00.0,-0.498806775,-3.89060235
00:00.0,-0.34156096,-2.686345577
00:00.0,-0.19621034,-1.526520371
00:00.0,-0.060257848,-0.460845202
00:00.0,0.066977173,0.497875303
00:00.0,0.176048368,1.343040943
00:00.0,0.26570341,2.037267923
00:00.0,0.335492134,2.578123808
00:00.0,0.381207705,2.954857349
00:00.0,0.414870441,3.199028969
00:00.0,0.430633336,3.313025713
00:00.0,0.430358201,3.340886593
00:00.0,0.41618225,3.264288187
00:00.0,0.390412897,3.070114613
00:00.0,0.35990122,2.827303171
00:00.0,0.32034114,2.515489101
00:00.0,0.27009505,2.152211428
00:00.0,0.218429208,1.746315956
00:00.0,0.167099491,1.346213579
00:00.0,0.126580209,0.975780964
00:00.0,0.084812857,0.628368318
00:00.0,0.043938283,0.30168733
00:00.0,-0.003278627,0.014260787
00:00.1,-0.042199332,-0.235842764
00:00.1,-0.073026232,-0.445215046
00:00.1,-0.0961354,-0.61227417
00:00.1,-0.112051241,-0.737068832
00:00.1,-0.125889227,-0.821055293
00:00.1,-0.127241522,-0.866858184
00:00.1,-0.119662158,-0.882495761
00:00.1,-0.11503505,-0.865523756
00:00.1,-0.102413453,-0.816703796
00:00.1,-0.089297511,-0.757027388
00:00.1,-0.080389,-0.677929461
00:00.1,-0.064805001,-0.585185885
00:00.1,-0.054513749,-0.493081778
00:00.1,-0.047486719,-0.388613403
00:00.1,-0.033295583,-0.283774525
00:00.1,-0.015301164,-0.186979309
00:00.1,-0.000579728,-0.081346504
00:00.1,0.006651719,0.036902569
00:00.1,0.008856621,0.127163231
00:00.1,0.016891092,0.170323387
00:00.1,0.023331868,0.211833909
00:00.1,0.028153846,0.234137952
00:00.1,0.031395875,0.23664777
00:00.1,0.037620403,0.229438916
00:00.1,0.040288396,0.22386165
00:00.1,0.035649557,0.204193369
00:00.1,0.031029971,0.184491336
00:00.1,0.02198687,0.168937936
00:00.1,0.019708119,0.155277088
00:00.1,0.017019035,0.137511849
00:00.1,0.014064171,0.116907082
00:00.1,0.015450224,0.094634652
00:00.1,0.01462841,0.067277923
00:00.1,0.007792778,0.051370244
00:00.1,0.002176349,0.033784609
00:00.1,-0.002314625,0.015789177
00:00.1,-0.0057777,-0.001590794
00:00.1,-0.008313782,-0.017560059
00:00.1,-0.010026175,-0.03600768
00:00.1,-0.011019297,-0.049873527
00:00.1,-0.006926146,-0.063969485
00:00.1,-0.004520464,-0.067555584
00:00.1,-0.007814026,-0.072780326
00:00.1,-0.009757216,-0.07336244
00:00.1,-0.010602522,-0.065799288
00:00.1,-0.015051372,-0.05317907
00:00.1,-0.01216859,-0.051358555
00:00.1,-0.009367839,-0.046675149
00:00.1,-0.006723594,-0.035526395
00:00.1,-0.004294539,-0.025337229
00:00.1,-0.00659518,-0.011718564
00:00.1,-0.006983,-0.001400407
00:00.1,-0.001560725,0.006142278
00:00.1,0.00252437,0.006903239
00:00.1,0.005443783,0.007965175
00:00.1,0.002892092,0.013604004
00:00.1,0.00169916,0.008053374
00:00.1,0.005927565,0.0051008
00:00.1,0.008573341,0.004023595
00:00.1,0.0099297,-0.000247532
00:00.1,0.0147341,-0.005997521
00:00.1,0.016553979,-0.003026105
00:00.1,0.016158717,0.005141504
00:00.1,0.014204014,0.020252181
00:00.1,0.011239754,0.033599205
00:00.1,0.007718181,0.048761379
00:00.1,-0.000468672,0.054106425
00:00.1,-0.00636659,0.02092818
00:00.1,-0.005851544,-0.001874746
00:00.1,-0.010389925,-0.002961303
00:00.1,-0.008580318,-0.008619365
00:00.1,-0.011925099,-0.012055834
00:00.1,-0.01352061,-0.018206922
00:00.1,-0.009273606,-0.007392895
00:00.1,-0.010662882,-0.009477861
00:00.1,-0.006282781,-0.014685255
00:00.1,-0.003145795,-0.016687086
00:00.1,-0.000988708,-0.020804798
00:00.1,0.000409724,-0.012141563
00:00.1,0.001233757,-0.000722068
00:00.1,0.0016352,0.006942655
00:00.1,0.001737556,0.007106361
00:00.1,0.00163979,0.01155293
00:00.1,0.001419738,0.013614366
00:00.1,0.005608218,0.022804869
00:00.1,0.003107042,0.02180356
00:00.1,-0.003293614,0.018817147
00:00.1,-0.00251614,0.014581108
00:00.1,-0.001856271,0.005224278
00:00.1,-0.001293421,-0.002104744
00:00.1,-0.005283322,-0.012067999
00:00.1,-0.007143002,-0.018195903
00:00.1,-0.002950828,-0.030196179
00:00.1,-0.004314596,-0.048818618
00:00.1,-0.00439224,-0.019992638
00:00.1,0.000884534,0.008716811
00:00.1,-0.00442922,0.012374911
00:00.1,-0.006698872,0.000282367
00:00.1,-0.00677709,-0.011384843
00:00.1,-0.00537162,-0.008156846
00:00.2,0.001411848,-0.000441484
00:00.2,0.001971259,0.013851468
00:00.2,0.007651743,0.017332241
00:00.2,0.011430969,0.013696744
00:00.2,0.013601922,0.005867319
00:00.2,0.014445173,0.005037604
00:00.2,0.014224909,0.008482621
00:00.2,0.013185648,-0.003778204
00:00.2,0.011549667,0.00232424
00:00.2,0.009515163,0.001166274
00:00.2,0.007255132,-0.008823714
00:00.2,0.00938796,-0.009798877
00:00.2,0.004892851,0.003886265
00:00.2,0.0010965,0.007369266
00:00.2,-0.002013573,-0.000260639
00:00.2,6.80E-06,-0.009531043
00:00.2,0.000446678,-0.005442584
00:00.2,0.004285343,0.006514127
00:00.2,0.000794028,0.013185414
00:00.2,-0.006939606,0.01138312
00:00.2,-0.012076148,0.004397226
00:00.2,-0.015064139,0.003724532
00:00.2,-0.016315265,-0.002056522
00:00.2,-0.016203072,-0.001504678
00:00.2,-0.015062156,-0.010558628
00:00.2,-0.013187874,-0.015613533
00:00.2,-0.010836609,-0.017580641
00:00.2,-0.012697617,-0.017248241
00:00.2,-0.00780961,-0.015289196
00:00.2,-0.003548502,-0.012268811
00:00.2,5.82E-05,-0.004182027
00:00.2,0.00300585,0.001924354
00:00.2,0.009780318,0.006315119
00:00.2,0.009270582,0.013713054
00:00.2,0.008751216,0.026625723
00:00.2,0.008191352,0.02354659
00:00.2,0.012045753,0.015138669
00:00.2,0.009167139,0.012949621
00:00.2,0.006789369,0.010078553
00:00.2,0.004837051,0.011341619
00:00.2,0.003246471,0.005870966
00:00.2,0.001963669,0.001107582
00:00.2,-0.00352824,-0.002879623
00:00.2,-0.002125692,-0.006063712
00:00.2,-0.001091737,-0.012923894
00:00.2,-0.004840076,-0.016825143
00:00.2,-0.002174169,-0.013913024
00:00.2,-0.000273707,-0.006934731
00:00.2,-0.003478102,-0.006953646
00:00.2,-0.00052509,-0.002210674
00:00.2,0.001463294,-0.003892632
00:00.2,0.002668713,-0.000348463
00:00.2,0.003253636,-0.002858754
00:00.2,0.007832732,-0.004324101
00:00.2,0.009859666,-0.00495097
00:00.2,0.009999928,-0.009398053
00:00.2,-0.000126172,-0.015632512
00:00.2,0.002234327,-0.013216802
00:00.2,0.003003639,-0.009978668
00:00.2,-0.0018135,-0.006330841
00:00.2,-0.009624932,-0.007073138
00:00.2,-0.009530083,-0.010257928
00:00.2,-0.01345283,-0.005485807
00:00.2,-0.005897008,0.008358019
00:00.2,-0.005339645,0.008606605
00:00.2,-8.58E-05,0.027328731
00:00.2,-0.001364264,0.046425197
00:00.2,-0.00201881,0.041108701
00:00.2,-0.00666743,0.016328398
00:00.2,-0.008766103,0.008435245
00:00.2,-0.008981708,0.024800172
00:00.2,-0.003406154,0.000466101
00:00.2,-0.00364957,-0.019815957
00:00.2,-0.002862918,-0.00880502
00:00.2,0.003036541,-0.006437449
00:00.2,0.002595073,-0.018466743
00:00.2,0.002799929,-0.042481575
00:00.2,0.003383141,-0.03535467
00:00.2,0.008607628,0.008534559
00:00.2,0.011645702,0.021712074
00:00.2,0.012943821,0.014705362
00:00.2,0.012899796,-0.004187759
00:00.2,0.007392563,-0.019655839
00:00.2,0.00786819,-0.004553696
00:00.2,0.002884699,0.019015575
00:00.2,-0.000584078,0.018599389
00:00.2,0.006100888,0.012272769
00:00.2,0.009335108,0.007194594
00:00.2,0.010010842,0.003211352
00:00.2,0.004410767,0.000179696
00:00.2,0.004303901,-0.006504934
00:00.2,0.002971022,-0.010294757
00:00.2,-0.003567037,-0.011861861
00:00.2,-0.012718432,-0.011782395
00:00.2,-0.013596425,-0.00607282
00:00.2,-0.018149488,-0.006281926
00:00.2,-0.015385207,-0.005512172
00:00.2,-0.008205281,-0.013056845
00:00.2,-0.003328799,-0.006914529
00:00.2,-0.000241177,0.007174139
00:00.3,0.001491603,0.015867941
00:00.3,0.002231373,0.024787426
00:00.3,0.002275678,0.028263127
00:00.3,0.001865203,0.027716186
00:00.3,0.00119074,0.02435142
00:00.3,-0.004071318,0.010231774
00:00.3,-0.00713916,-0.00941939
00:00.3,-0.008492063,-0.017247023
00:00.3,-0.008549393,-0.025944678
00:00.3,-0.007673167,-0.038576588
00:00.3,-0.006171004,-0.043050379
00:00.3,0.00017156,-0.037079692
00:00.3,2.63E-06,0.006589023
00:00.3,0.000385914,0.024668897
00:00.3,0.001108609,0.016309394
00:00.3,0.00200025,0.010259879
00:00.3,0.002928327,0.001579458
00:00.3,0.008264912,0.001008143
00:00.3,0.011268574,0.005446036
00:00.3,0.016923299,0.003550689
00:00.3,0.010062824,0.002394266
00:00.3,0.009444742,0.006241253
00:00.3,0.003609331,0.00378168
00:00.3,-0.000491736,0.002112159
00:00.3,-0.003186533,0.009985419
00:00.3,-0.000291761,0.01390165
00:00.3,-0.003200386,0.01037775
00:00.3,-0.000427493,0.011396776
00:00.3,-0.00338566,0.005962206
00:00.3,-0.000607559,-0.007531038
00:00.3,0.000949756,-0.011281787
00:00.3,0.00159749,-0.008642212
00:00.3,-0.00287435,0.006689523
00:00.3,-0.005578575,0.019344939
00:00.3,-0.006898389,0.015526804
00:00.3,-0.002696099,0.024078296
00:00.3,7.02E-05,0.02113623
00:00.3,0.001715515,-0.006829778
00:00.3,-0.001961759,-0.020779632
00:00.3,0.000408596,-0.002396494
00:00.3,0.001786766,-0.010671544
00:00.3,-0.002056468,-0.029951889
00:00.3,-0.008716478,-0.04495427
00:00.3,-0.011909638,-0.028607298
00:00.3,-0.0080552,-0.029946454
00:00.3,-0.000106199,-0.0146951
00:00.3,0.005197564,0.000649412
00:00.3,0.008374454,-0.016545553
00:00.3,0.009881122,-0.020478051
00:00.3,0.010115788,-0.011119464
00:00.3,0.009421629,0.001314698
00:00.3,0.008090262,0.010153482
00:00.3,0.006365378,0.020462627
00:00.3,-2.45E-05,0.035051785
00:00.3,-0.004248578,0.037149839
00:00.3,-0.006741617,0.026506649
00:00.3,-0.007884498,0.004212612
00:00.3,-0.012478355,-0.005393961
00:00.3,-0.009663172,0.002604048
00:00.3,-0.002435999,-0.001759346
00:00.3,-0.0020512,-0.013267155
00:00.3,0.003109884,-0.01452513
00:00.3,0.001762754,-0.013678696
00:00.3,0.001025285,-0.006943247
00:00.3,0.000726356,-0.001553302
00:00.3,0.00072558,0.007068502
00:00.3,0.000910014,0.012369884
00:00.3,0.005661975,0.015036625
00:00.3,0.008242223,0.015672632
00:00.3,0.018101202,0.014803465
00:00.3,0.017861933,0.01288023
00:00.3,0.011211709,0.010283867
00:00.3,0.005516964,0.002858769
00:00.3,-0.003684494,0.002002557
00:00.3,-0.009741574,-0.003785557
00:00.3,-0.008786003,-0.007597584
00:00.3,-0.012496373,-0.023219438
00:00.3,-0.014114805,-0.022026123
00:00.3,-0.009666659,-0.023798261
00:00.3,-0.010725249,-0.013476275
00:00.3,-0.001487302,-0.009886332
00:00.3,-0.00016313,0.002866398
00:00.3,-0.003770545,0.01562106
00:00.3,-0.010000213,0.027076645
00:00.3,-0.003706176,0.02743871
00:00.3,-0.003658279,0.01615319
00:00.3,-0.002873442,0.007459258
00:00.3,-0.006103023,0.000981684
00:00.3,-0.002430314,-0.003623847
00:00.3,-0.003732915,-0.006671508
00:00.3,0.001084524,-0.012917041
00:00.3,0.004775915,-0.02041569
00:00.3,0.002965421,-0.023281273
00:00.3,0.002433091,-0.013801255
00:00.3,0.016151112,-0.001885643
00:00.3,0.01034099,0.010518907
00:00.3,0.00194904,0.026482157
00:00.3,0.006127709,0.033917949
00:00.3,0.008595224,-0.000749347
00:00.3,0.005215136,-0.035705987
00:00.4,0.002962242,-0.040443424
00:00.4,0.006020514,-0.021277264
00:00.4,0.011955802,-0.002297814
00:00.4,0.009996122,0.014976004
00:00.4,0.016637271,0.016119462
00:00.4,0.036612827,-0.001799127
00:00.4,0.035566323,-0.029700885
00:00.4,0.030137926,-0.051826026
00:00.4,0.057742331,-0.098970763
00:00.4,-0.009670389,-0.088647105
00:00.4,-0.147063389,0.02882221
00:00.4,-0.170063987,0.107276142
00:00.4,-0.141245201,0.144786939
00:00.4,-0.081292219,0.147666007
00:00.4,-0.024173768,0.127133995
00:00.4,0.026800368,0.101201862
00:00.4,0.069476828,0.068164118
00:00.4,0.098192431,0.036908381
00:00.4,0.105794884,0.004123506
00:00.4,0.107476681,-0.022718532
00:00.4,0.086085103,-0.048160274
00:00.4,0.069156237,-0.06578391
00:00.4,0.046426386,-0.081017412
00:00.4,0.025802838,-0.088169448
00:00.4,0.007693093,-0.093246624
00:00.4,-0.012124579,-0.091000646
00:00.4,-0.035810027,-0.083287582
00:00.4,-0.050585911,-0.071742512
00:00.4,-0.067088224,-0.05778072
00:00.4,-0.060081709,-0.042602282
00:00.4,-0.043106351,-0.027199842
00:00.4,-0.029960766,-0.012369359
00:00.4,-0.024396153,0.001276623
00:00.4,-0.023604259,0.017764578
00:00.4,-0.016490541,0.025658194
00:00.4,-0.010331376,0.032026105
00:00.4,0.003860206,0.036735177
00:00.4,0.012787,0.039754748
00:00.4,0.013142914,0.045609076
00:00.4,0.008125201,0.052216735
00:00.4,0.009162039,0.035748154
00:00.4,0.00925669,0.024121484
00:00.4,0.004210763,0.020662701
00:00.4,0.00539169,0.01775749
00:00.4,0.001281225,0.019669304
00:00.4,-0.00121786,0.0195865
00:00.4,0.001998687,0.02692233
00:00.4,0.003943037,0.028759167
00:00.4,0.009375258,0.022118302
00:00.4,0.016341383,0.005998146
00:00.4,0.023406534,-0.001285195
00:00.4,0.016159011,-0.002653707
00:00.4,0.00950483,-0.004868355
00:00.4,0.003625497,-0.016419491
00:00.4,-0.001365469,-0.023611968
00:00.4,-0.005412542,-0.022827527
00:00.4,-0.0129796,-0.021495946
00:00.4,-0.026369082,-0.019726599
00:00.4,-0.028387025,-0.022099175
00:00.4,-0.031848367,-0.022046842
00:00.4,-0.026488511,-0.024696719
00:00.4,-0.02475146,-0.019467099
00:00.4,-0.020496923,-0.014058936
00:00.4,-0.01917601,-0.013244998
00:00.4,-0.014911581,-0.010585715
00:00.4,-0.004416968,0.002133893
00:00.4,0.004688322,0.019927515
00:00.4,0.012225701,0.030109821
00:00.4,0.022587948,0.020981623
00:00.4,0.029108521,0.027452918
00:00.4,0.032417495,0.015687412
00:00.4,0.04205256,0.002552147
00:00.4,0.0407537,-0.005838573
00:00.4,0.036815684,-0.001589547
00:00.4,0.031080153,0.005529338
00:00.4,0.019792208,-0.004211739
00:00.4,0.010220008,-0.014403811
00:00.4,0.006760708,-0.014843686
00:00.4,-0.001820359,-0.000148991
00:00.4,-0.012873077,0.000135097
00:00.4,-0.010992229,0.000545428
00:00.4,-0.014762074,0.023353288
00:00.4,-0.017079245,0.021725303
00:00.4,-0.022631446,0.000537956
00:00.4,-0.024957225,-0.008394897
00:00.4,-0.02481498,-0.008972236
00:00.4,-0.022864323,-0.004301415
00:00.4,-0.019670976,-0.005743939
00:00.4,-0.011241088,-0.006255358
00:00.4,-0.004640779,-0.010546861
00:00.4,-0.004101264,-0.007680037
00:00.4,-0.002727503,-0.000584414
00:00.4,0.003601101,-0.013870059
00:00.4,0.00793294,-0.015855247
00:00.4,0.015080111,-0.010516241
00:00.4,0.014210551,-0.000990022
00:00.4,0.012834013,0.019256821
00:00.4,0.006643325,0.021684047
00:00.4,0.006922699,0.021696361
00:00.4,0.00656247,0.024420841
00:00.5,0.005747914,0.014803177
00:00.5,0.00463725,0.007213452
00:00.5,-0.001108019,0.014805675
00:00.5,-0.000236742,0.012851281
00:00.5,-0.004363248,-0.003943967
00:00.5,-0.002192677,-0.005976239
00:00.5,-0.000827912,-0.012220731
00:00.5,0.004391566,-0.020382602
00:00.5,0.002484039,-0.019823371
00:00.5,0.005284755,-0.018224055
00:00.5,-0.002795476,-0.015897961
00:00.5,0.00109682,-0.013114926
00:00.5,-0.001498535,-0.010102865
00:00.5,0.001114774,-0.00704977
00:00.5,0.002166816,-0.004106103
00:00.5,-0.002352437,0.007554469
00:00.5,-0.000922424,0.010033468
00:00.5,-0.000469077,0.015533317
00:00.5,-0.005139379,0.013265338
00:00.5,-0.003531485,0.015233492
00:00.5,-0.011614782,0.010465331
00:00.5,-0.01133592,0.010795657
00:00.5,-0.014763879,0.005097427
00:00.5,-0.015465796,0.000594346
00:00.5,-0.018674286,-0.007294571
00:00.5,0.02635086,-0.056724902
00:00.5,0.150166288,-0.193433627
00:00.5,-0.008409808,-0.136080131
00:00.5,-0.10621202,-0.030314825
00:00.5,-0.138969958,0.033778943
00:00.5,-0.136130318,0.089004219
00:00.5,-0.141093358,0.141968563
00:00.5,-0.094508648,0.178203568
00:00.5,-0.014409062,0.180780172
00:00.5,0.057377603,0.155556202
00:00.5,0.108490467,0.113219529
00:00.5,0.145872325,0.06224655
00:00.5,0.16094628,0.009170849
00:00.5,0.154577613,-0.041161396
00:00.5,0.142542213,-0.080879159
00:00.5,0.117103562,-0.092118941
00:00.5,0.09282326,-0.088626929
00:00.5,0.06529367,-0.115830414
00:00.5,0.036871005,-0.122262828
00:00.5,0.004929199,-0.113913439
00:00.5,-0.026947096,-0.100217938
00:00.5,-0.04719824,-0.083016917
00:00.5,-0.058436483,-0.063883238
00:00.5,-0.062856235,-0.039659198
00:00.5,-0.066755496,-0.022553209
00:00.5,-0.073909149,-0.001698123
00:00.5,-0.081696086,0.015529064
00:00.5,-0.07933642,0.029182175
00:00.5,-0.083457328,0.043879144
00:00.5,-0.07667166,0.044230536
00:00.5,-0.067228504,0.044423085
00:00.5,-0.051512312,0.044143561
00:00.5,-0.036965441,0.043202244
00:00.5,-0.02370595,0.041511085
00:00.5,-0.016308475,0.039063234
00:00.5,-0.008180913,0.031443141
00:00.5,-0.00440139,0.025423219
00:00.5,0.001214541,0.033989631
00:00.5,0.007735241,0.027861679
00:00.5,0.014420252,0.012875284
00:00.5,0.020702932,0.006973465
00:00.5,0.026172033,0.006958489
00:00.5,0.030552723,0.005876611
00:00.5,0.03815848,-0.004885809
00:00.5,0.03778746,-0.011699896
00:00.5,0.027748145,-0.015439107
00:00.5,0.025852691,-0.021317985
00:00.5,0.015423959,-0.01882028
00:00.5,0.018454244,-0.002283749
00:00.5,0.082884356,-0.036774829
00:00.5,0.048303053,-0.045226224
00:00.5,-0.022010038,0.008309338
00:00.5,-0.031667978,0.023325091
00:00.5,-0.016483732,0.013205396
00:00.5,-0.00070999,0.024242202
00:00.5,0.000592516,0.046882842
00:00.5,0.010795802,0.04262919
00:00.5,0.016410075,0.039562196
00:00.5,0.018461348,0.02789435
00:00.5,0.017848294,0.020420661
00:00.5,0.015346607,0.002300026
00:00.5,0.016085593,-0.020938817
00:00.5,0.089948386,-0.094327994
00:00.5,0.115575768,-0.190685555
00:00.5,-0.026460247,-0.133463651
00:00.5,-0.132997245,-0.025858773
00:00.5,-0.112956032,0.014109734
00:00.5,-0.118857525,0.040595222
00:00.5,-0.129543751,0.083009005
00:00.5,-0.086695135,0.081257828
00:00.5,-0.040407803,0.100884952
00:00.5,0.009172007,0.112587966
00:00.5,0.047605354,0.076564357
00:00.5,0.070999861,0.040208556
00:00.5,0.127127752,-0.011798939
00:00.6,0.156449273,-0.091212586
00:00.6,0.04845909,-0.049648955
00:00.6,0.004085765,-0.017896254
00:00.6,0.02019071,-0.026139842
00:00.6,0.05795465,-0.066764504
00:00.6,0.019672971,-0.073530704
00:00.6,-0.021883152,-0.053558849
00:00.6,-0.043794498,-0.022718785
00:00.6,-0.055846468,-0.014393486
00:00.6,-0.055738356,-0.006814707
00:00.6,-0.052034944,0.004341993
00:00.6,-0.041338559,0.007838387
00:00.6,-0.03123452,0.015326048
00:00.6,-0.021928353,0.020039449
00:00.6,-0.00910077,0.022485461
00:00.6,-0.008467101,0.032063529
00:00.6,-0.010653017,0.049252313
00:00.6,0.003767316,0.051042814
00:00.6,0.01816245,0.05150919
00:00.6,0.035591237,0.063775621
00:00.6,0.039508693,0.02304827
00:00.6,0.038809888,-0.01559922
00:00.6,0.034835372,-0.031630337
00:00.6,0.028711086,-0.050049979
00:00.6,0.021365397,-0.049858194
00:00.6,0.009075424,-0.051139109
00:00.6,0.003569316,-0.057014301
00:00.6,-0.001942068,-0.046493743
00:00.6,-0.007059769,-0.039606079
00:00.6,-0.002560642,-0.039362941
00:00.6,0.038631003,-0.069330901
00:00.6,-0.004914388,-0.055808719
00:00.6,-0.051690415,-0.006966311
00:00.6,-0.073352039,0.028209161
00:00.6,-0.072361201,0.056314826
00:00.6,-0.065589502,0.068178341
00:00.6,-0.054930989,0.072837591
00:00.6,-0.037498374,0.067376986
00:00.6,-0.021259148,0.064332314
00:00.6,-0.011158208,0.057703916
00:00.6,0.003626336,0.044174798
00:00.6,0.01567911,0.035875767
00:00.6,0.025016874,0.021934211
00:00.6,0.031746879,0.000841497
00:00.6,0.036048748,0.003878911
00:00.6,0.038157083,-0.001225606
00:00.6,0.042816196,-0.011029378
00:00.6,0.043651335,-0.01840502
00:00.6,0.041527409,-0.019104231
00:00.6,0.037221417,-0.024512192
00:00.6,0.035890818,-0.023183346
00:00.6,0.026987901,-0.026606968
00:00.6,0.022717578,-0.027891492
00:00.6,0.016738214,-0.018504348
00:00.6,0.005389864,-0.01217112
00:00.6,0.000468506,-0.026011052
00:00.6,-0.009217251,-0.032710347
00:00.6,-0.021001138,-0.020580782
00:00.6,-0.023954848,-0.006650938
00:00.6,-0.025543071,-0.006120167
00:00.6,-0.025927881,-0.009192936
00:00.6,-0.025284465,-0.009519687
00:00.6,-0.023794245,-0.003454373
00:00.6,-0.021638626,0.001644243
00:00.6,-0.018993543,0.005773488
00:00.6,-0.016024847,0.008959346
00:00.6,-0.012884573,0.006780862
00:00.6,-0.009708146,0.010450223
00:00.6,-0.00661242,0.008351215
00:00.6,-0.003694586,0.020749485
00:00.6,0.003439207,0.022780808
00:00.6,-0.000882274,0.022493226
00:00.6,-0.002796611,0.02051683
00:00.6,0.00150184,0.021862365
00:00.6,0.004785367,0.015841478
00:00.6,0.007155696,0.005587094
00:00.6,0.013189705,-0.002014763
00:00.6,0.011852394,-0.007367596
00:00.6,0.014951563,-0.010841946
00:00.6,0.015834009,-0.00830483
00:00.6,0.010607799,-0.006733864
00:00.6,0.010909504,-0.010316572
00:00.6,0.005453113,-0.012152964
00:00.6,0.001337765,-0.008150061
00:00.6,-0.001641242,-0.005313504
00:00.6,0.000800824,-0.007847734
00:00.6,0.001823631,-0.008859662
00:00.6,0.001833273,-0.008725453
00:00.6,-0.003305165,-0.007769726
00:00.6,-0.002176139,-0.010739245
00:00.6,-0.001792901,-0.015663169
00:00.6,-0.00190304,-0.016614715
00:00.6,-0.011247296,-0.010299956
00:00.6,-0.011854883,-0.004366766
00:00.6,-0.011395622,0.000948945
00:00.6,0.02112655,-0.01686601
00:00.6,0.034281138,-0.04242824
00:00.6,-0.024166869,-0.00716375
00:00.6,-0.049307846,0.035519056
00:00.6,-0.042276811,0.051770877
00:00.7,-0.029031362,0.063256107
00:00.7,-0.017170815,0.061060365
00:00.7,-0.002404242,0.05433828
00:00.7,0.008500982,0.040171444
00:00.7,0.016079577,0.02205253
00:00.7,0.025311885,0.01161741
00:00.7,0.038948052,-0.011417456
00:00.7,0.053590983,-0.058008891
00:00.7,0.026597003,-0.069502532
00:00.7,0.020902636,-0.071116619
00:00.7,0.006024917,-0.056679837
00:00.7,-0.017761711,-0.023980318
00:00.7,-0.026819963,0.008429203
00:00.7,-0.025769938,0.015411152
00:00.7,-0.022790249,0.024014421
00:00.7,-0.014119221,0.028119903
00:00.7,-0.011476414,0.028782159
00:00.7,-0.003619104,0.031385127
00:00.7,0.00681396,0.030036582
00:00.7,0.008900236,0.021477884
00:00.7,0.014562089,0.013391012
00:00.7,0.017260421,0.006043233
00:00.7,0.017685752,-0.004851031
00:00.7,0.011967739,-0.012506496
00:00.7,0.011764158,-0.01742916
00:00.7,0.005808754,-0.029032676
00:00.7,0.005689223,-0.034408566
00:00.7,0.004543939,-0.030597577
00:00.7,-0.001714995,-0.02557045
00:00.7,-0.006104658,-0.024340587
00:00.7,-0.008936752,-0.020680478
00:00.7,-0.00602394,0.002382665
00:00.7,0.000176985,0.021890702
00:00.7,-0.001147998,0.019400565
00:00.7,0.001970401,0.016918536
00:00.7,0.002989664,0.023423357
00:00.7,0.00255707,0.030077768
00:00.7,0.001199933,0.017944764
00:00.7,-0.00513241,-0.000373715
00:00.7,-0.004971251,-0.007456671
00:00.7,-0.009773329,-0.015924398
00:00.7,-0.012607619,-0.015350495
00:00.7,-0.004897648,-0.01357863
00:00.7,-0.004793996,-0.015513321
00:00.7,-0.004814093,-0.010365937
00:00.7,-0.000373499,-0.005648195
00:00.7,0.00193146,-0.001491769
00:00.7,0.002703055,0.006492193
00:00.7,0.002432817,0.007121047
00:00.7,0.001514544,0.00761955
00:00.7,0.004727569,0.007925257
00:00.7,0.005634474,0.012476389
00:00.7,0.013905951,0.014592255
00:00.7,0.021258401,0.010369036
00:00.7,0.000245724,0.011443945
00:00.7,-0.027328903,0.002070351
00:00.7,-0.065074064,0.00050782
00:00.7,-0.086914077,-0.005125959
00:00.7,-0.086919375,-0.012704147
00:00.7,-0.067796171,-0.011703563
00:00.7,-0.037546303,-0.014347736
00:00.7,-0.006865627,-0.014314127
00:00.7,0.02176255,-0.012437961
00:00.7,0.042145506,-0.004933646
00:00.7,0.050932843,0.000976258
00:00.7,0.060360231,0.009889378
00:00.7,0.068718083,0.010808578
00:00.7,0.070411198,0.011121298
00:00.7,0.071466431,0.010905655
00:00.7,0.062122229,0.014719231
00:00.7,0.055285525,0.011509625
00:00.7,0.045232669,0.008596333
00:00.7,0.033309788,0.00150847
00:00.7,0.020624431,0.001390011
00:00.7,0.008062385,-0.00793017
00:00.7,-0.003693779,-0.013024298
00:00.7,-0.014144862,-0.010462985
00:00.7,-0.018483276,0.00114423
00:00.7,-0.023185613,0.003807845
00:00.7,-0.027619341,0.000715356
00:00.7,-0.031337854,0.012247801
00:00.7,-0.042995263,0.022561656
00:00.7,-0.044621821,0.039821845
00:00.7,-0.048428364,0.032366637
00:00.7,-0.030281922,0.001011109
00:00.7,-0.022313453,-0.019923704
00:00.7,-0.034372352,-0.023535779
00:00.7,-0.043675784,-0.01602439
00:00.7,-0.045338511,-0.006715024
00:00.7,-0.045933075,-0.006044611
00:00.7,-0.027158702,-0.006206302
00:00.7,-0.011075347,-0.006822479
00:00.7,0.011248296,-0.012078492
00:00.7,0.026528995,-0.019566573
00:00.7,0.031532317,-0.027502781
00:00.7,0.011689154,-0.02568703
00:00.7,0.009738198,-0.017698903
00:00.7,0.018899485,-0.015299513
00:00.7,0.033909045,-0.011774682
00:00.7,0.037393808,-0.003158638
00:00.8,0.033103202,0.007938846
00:00.8,0.010626814,0.028495762
00:00.8,0.00574263,0.039284348
00:00.8,0.007489138,0.024785969
00:00.8,0.013025333,0.018175282
00:00.8,0.015724709,0.012245287
00:00.8,0.025156705,0.002598992
00:00.8,0.033006031,-0.004054648
00:00.8,0.029732265,-0.003796576
00:00.8,0.023925345,-0.008261451
00:00.8,0.01216346,-0.015125092
00:00.8,0.00196761,-0.018181169
00:00.8,-0.011023182,-0.01392193
00:00.8,-0.015632501,-0.009839131
00:00.8,-0.019120762,-0.001591452
00:00.8,-0.02148567,0.004055151
00:00.8,-0.022774031,0.007595898
00:00.8,-0.018599944,0.013938577
00:00.8,-0.020219469,0.016793197
00:00.8,-0.025006527,0.012576467
00:00.8,-0.022047773,0.008713129
00:00.8,-0.027740194,0.005274537
00:00.8,-0.028869541,0.002305222
00:00.8,-0.026672717,-0.004644691
00:00.8,-0.02220225,-0.008902297
00:00.8,-0.016338049,-0.015511704
00:00.8,-0.005329028,-0.022772219
00:00.8,0.00357972,-0.025000919
00:00.8,0.01050506,-0.02359331
00:00.8,0.015595648,-0.015248294
00:00.8,0.019024724,-0.003130137
00:00.8,0.020982979,0.010341665
00:00.8,0.021671655,0.014444735
00:00.8,0.021296103,0.021283194
00:00.8,0.02005991,0.020010868
00:00.8,0.027101764,0.022607643
00:00.8,0.024792537,0.018103614
00:00.8,0.021089701,0.013885535
00:00.8,0.016530862,0.010006945
00:00.8,0.011562235,0.002038968
00:00.8,0.002073729,-0.003316639
00:00.8,0.003961496,-0.011070775
00:00.8,-0.000935485,-0.015017083
00:00.8,-0.009624963,-0.016110601
00:00.8,-0.010879858,-0.010687076
00:00.8,-0.01636412,-0.001618819
00:00.8,-0.010381163,0.008901867
00:00.8,-0.002317995,0.005850718
00:00.8,-0.00713367,-0.0052916
00:00.8,-0.010391766,-0.002427257
00:00.8,-0.003364823,0.004299989
00:00.8,0.018274132,-0.009621057
00:00.8,-0.007022364,-0.007949647
00:00.8,-0.040789109,0.012155949
00:00.8,-0.067257464,0.037108436
00:00.8,-0.068101399,0.062295776
00:00.8,-0.047745835,0.035315502
00:00.8,-0.024404004,0.018544931
00:00.8,0.003677322,0.018058412
00:00.8,0.018899808,0.000336098
00:00.8,0.024862235,-0.026501285
00:00.8,0.028955372,-0.038430937
00:00.8,0.022363469,-0.044276211
00:00.8,0.018600777,-0.045375269
00:00.8,0.025696145,-0.038436905
00:00.8,0.029585084,-0.035630155
00:00.8,0.035299703,-0.03060443
00:00.8,0.041170485,-0.010771587
00:00.8,0.032634955,-0.001303466
00:00.8,0.028986456,0.001117805
00:00.8,0.019232204,0.003583647
00:00.8,0.015193566,0.005913496
00:00.8,0.010202944,0.012444507
00:00.8,0.004798931,0.011941895
00:00.8,-0.005059518,0.011579653
00:00.8,-0.012370107,0.00677631
00:00.8,-0.012978411,0.00412651
00:00.8,-0.009394468,0.003023728
00:00.8,-0.003560142,-0.005970891
00:00.8,-0.010345362,-0.00991295
00:00.8,-0.015253942,-0.001288526
00:00.8,-0.022937393,0.014320947
00:00.8,-0.022454502,0.023730362
00:00.8,-0.025719533,0.032710198
00:00.8,-0.026192652,0.035732128
00:00.8,-0.020097209,0.034347553
00:00.8,-0.019182725,0.029879054
00:00.8,-0.012270314,0.018964788
00:00.8,-0.006557682,0.009188386
00:00.8,0.007013931,0.000723642
00:00.8,0.010740345,-0.006332395
00:00.8,0.016984973,-0.011949151
00:00.8,0.015091151,-0.01615217
00:00.8,0.00822776,-0.019012885
00:00.8,0.003322209,-0.020638715
00:00.8,1.82E-05,-0.025634702
00:00.8,-0.002001913,-0.023010008
00:00.8,0.001452501,-0.020155903
00:00.8,0.007936379,-0.017150808
00:00.8,0.006654489,-0.014077378
00:00.9,0.000658547,-0.006546418
00:00.9,-0.003221842,-0.005777587
00:00.9,-0.005423288,-0.00461039
00:00.9,-0.006328113,-0.003189888
00:00.9,-0.006267176,-0.006113192
00:00.9,-0.005522907,-0.006815055
00:00.9,-0.004332537,0.007473058
00:00.9,0.001579523,0.011725934
00:00.9,0.009855404,0.000433364
00:00.9,0.009787484,-0.01035786
00:00.9,0.004513716,-0.015217775
00:00.9,0.000947013,-0.002339365
00:00.9,0.003200804,0.020332558
00:00.9,-0.000176358,0.019939676
00:00.9,0.002252379,0.014225772
00:00.9,0.003506774,0.010085271
00:00.9,-0.000589947,0.007159407
00:00.9,0.001354221,0.0051514
00:00.9,0.006788872,0.003818968
00:00.9,0.004828038,0.007438356
00:00.9,-0.001554386,0.013655121
00:00.9,-0.005595169,0.011765517
00:00.9,-0.003316114,0.004910087
00:00.9,-0.006289469,1.82E-06
00:00.9,-0.003184872,-0.00332007
00:00.9,-0.005546023,-0.005371133
00:00.9,-0.002014729,-0.010896473
00:00.9,0.000363195,-0.013460467
00:00.9,0.00182885,-0.009351104
00:00.9,-0.006352038,-0.005880982
00:00.9,-0.00618783,-0.007496374
00:00.9,-0.005316315,-0.003018306
00:00.9,-0.012940412,0.000368993
00:00.9,-0.015928553,0.007274644
00:00.9,-0.015563727,0.006691009
00:00.9,-0.003974591,0.005977574
00:00.9,0.004617726,0.005171254
00:00.9,0.010624761,0.004308005
00:00.9,0.014440246,0.016834652
00:00.9,0.016436264,0.031708688
00:00.9,0.016959876,0.037286434
00:00.9,0.011859296,0.040590387
00:00.9,0.012566498,0.005788311
00:00.9,0.012109835,-0.022573117
00:00.9,0.010801176,-0.030897038
00:00.9,0.013383704,-0.043824218
00:00.9,0.008947697,-0.044482909
00:00.9,0.009388624,-0.028081806
00:00.9,0.003636176,-0.015750125
00:00.9,0.003436529,-0.011226081
00:00.9,-0.002417751,-0.007202139
00:00.9,-0.002304785,0.000783381
00:00.9,-0.007543031,0.01052809
00:00.9,-0.006608152,0.011453605
00:00.9,-0.006431676,0.011275714
00:00.9,-0.006702899,0.010323329
00:00.9,-0.011653162,0.004397016
00:00.9,-0.009961586,0.000388816
00:00.9,-0.01320297,-0.011026206
00:00.9,-0.014537613,-0.00789918
00:00.9,-0.014398674,-0.009452365
00:00.9,-0.013169091,-0.009091917
00:00.9,-0.011182274,-0.007428843
00:00.9,0.00021864,-0.000494904
00:00.9,0.00298033,0.000162486
00:00.9,0.004694847,0.005927037
00:00.9,0.0055929,0.014272879
00:00.9,0.005870893,0.018836185
00:00.9,0.005694475,0.020461893
00:00.9,0.005201776,0.019885937
00:00.9,3.54E-05,0.017740997
00:00.9,0.001429726,0.010091632
00:00.9,-0.006714013,0.004054613
00:00.9,-0.010910342,-0.000566242
00:00.9,-0.007683433,-0.008427992
00:00.9,-0.004547148,-0.02197662
00:00.9,-0.006116505,-0.024120204
00:00.9,-0.005822325,-0.018799573
00:00.9,0.000182383,-0.004663008
00:00.9,0.004719309,0.000270217
00:00.9,0.003473626,-0.000832992
00:00.9,-0.001191147,0.003454814
00:00.9,-0.002995958,0.010630582
00:00.9,0.006135487,0.014335752
00:00.9,0.021096213,0.019877225
00:00.9,0.029095134,0.012356862
00:00.9,0.022810692,0.001808697
00:00.9,0.016985089,-0.000767597
00:00.9,0.011693707,-0.002744766
00:00.9,0.0069911,-0.008649377
00:00.9,0.002911411,-0.011869458
00:00.9,-0.000530613,-0.013024923
00:00.9,-0.003338109,-0.012650113
00:00.9,-0.010001186,-0.011199548
00:00.9,-0.013880954,-0.013524828
00:00.9,-0.011108205,-0.008795834
00:00.9,-0.008878843,-2.17E-05
00:00.9,-0.002615516,0.001546335
00:00.9,0.001097992,0.003071336
00:00.9,-0.001579765,0.008907908
00:01.0,0.0010233,0.016776539
00:01.0,-0.002354753,0.020516282
00:01.0,-0.000128035,0.016664589
00:01.0,-0.003633962,0.012757428
00:01.0,-0.005822934,0.013437974
00:01.0,-0.006945262,0.003226765
00:01.0,-0.007227352,-0.003875546
00:01.0,-0.006871348,-0.008444883
00:01.0,-0.001584105,-0.010991267
00:01.0,-0.002662295,-0.011962467
00:01.0,-0.00747822,-0.016218625
00:01.0,-0.009554979,-0.017422123
00:01.0,-0.005145735,-0.016413389
00:01.0,-0.006004205,-0.02284088
00:01.0,-0.005407837,-0.006060634
00:01.0,-0.003854939,0.01459532
00:01.0,0.00272016,0.013287352
00:01.0,0.011795073,0.01643585
00:01.0,0.012537471,0.01736317
00:01.0,0.012466074,0.030044829
00:01.0,0.01176116,0.030478368
00:01.0,0.006115411,0.014005003
00:01.0,0.006817767,0.006307257
00:01.0,0.011238011,-0.008920307
00:01.0,0.008429762,-0.022875065
00:01.0,0.005793445,-0.030094488
00:01.0,-0.001082097,-0.023249166
00:01.0,-0.001010805,-0.008121773
00:01.0,-0.005665115,0.006363947
00:01.0,0.000669217,0.019096076
00:01.0,-0.00029903,0.024898704
00:01.0,0.003280081,0.030071059
00:01.0,0.000303694,0.020534815
00:01.0,-0.00644392,0.020401703
00:01.0,-0.005892575,0.016711576
00:01.0,-0.005347027,0.006369781
00:01.0,-0.000326173,-0.007324374
00:01.0,0.006972816,-0.01740475
00:01.0,0.00596343,-0.024264358
00:01.0,-0.000129717,-0.032788642
00:01.0,0.000134478,-0.036728386
00:01.0,-0.000240865,-0.041530989
00:01.0,0.003476388,-0.041400559
00:01.0,0.000347221,-0.046610702
00:01.0,-0.002245254,-0.031548418
00:01.0,-0.013218767,-0.018308789
00:01.0,-0.014763657,-0.015899654
00:01.0,-0.010223743,-0.006517091
00:01.0,-0.002229698,0.002090858
00:01.0,-0.001737018,0.014092426
0:00:01,-0.001358667,0.022620888
00:01.0,-0.005519961,0.041545149
00:01.0,-0.01198911,0.046827123
00:01.0,-0.014632456,0.056187011
00:01.0,-0.014468083,0.035194807
00:01.0,-0.012354977,0.014944416
00:01.0,-0.013476657,0.001184968
00:01.0,-0.020682288,0.001495069
00:01.0,-0.021644289,-0.003110345
00:01.0,-0.009357698,-0.010309967
00:01.0,0.005714797,-0.013882344
00:01.0,0.021209961,-0.014763147
00:01.0,0.030956844,-0.00926603
00:01.0,0.04048558,-0.004710823
00:01.0,0.044087496,-0.00106533
00:01.0,0.038714353,0.00172543
00:01.0,0.032275595,0.008204634
00:01.0,0.029745197,0.011784803
00:01.0,0.020401923,0.017586378
00:01.0,0.020760419,0.019504121
00:01.0,0.013189034,0.018583054
00:01.0,0.005596223,0.011235931
00:01.0,-0.006038165,0.004869083
00:01.0,-0.010241076,-0.000477257
00:01.0,-0.018488917,-0.004800399
00:01.0,-0.023891553,-0.012600611
00:01.0,-0.022402409,-0.017261723
00:01.0,-0.025573699,-0.019417694
00:01.0,-0.026564723,-0.015160416
00:01.0,-0.025824755,-0.016126739
00:01.0,-0.02376576,-0.015515188
00:01.0,-0.025230231,-0.009305926
00:01.0,-0.028346319,-0.004554845
00:01.0,-0.02728508,0.007916689
00:01.0,-0.02778771,0.019445226
00:01.0,-0.01530205,0.015716307
00:01.0,0.004343585,0.016205786
00:01.0,0.00881406,0.00558056
00:01.0,0.017053973,-0.010988615
00:01.0,0.022287803,-0.034064077
00:01.0,0.025028037,-0.036254946
00:01.0,0.021278305,-0.020515705
00:01.0,0.022615783,0.005102935
00:01.0,0.026674494,0.007647848
00:01.0,0.022747261,0.013722437
00:01.0,0.018447952,0.025750533
00:01.0,0.014023793,0.031089688
00:01.0,0.009679451,0.013574829
00:01.0,0.010049744,0.001348295
00:01.0,0.008588205,-0.002136362
00:01.1,0.001471067,-0.008914557
00:01.1,0.000369541,-0.012532657
00:01.1,-0.005996138,-0.004801752
00:01.1,-0.006072869,0.00476105
00:01.1,-0.006772507,0.005584106
00:01.1,-0.007772839,0.005387427
00:01.1,-0.013300851,3.02E-05
00:01.1,-0.012037436,-0.003546228
00:01.1,-0.015564224,-0.005683828
00:01.1,-0.017052373,-0.011157477
00:01.1,-0.012477914,-0.013562402
00:01.1,-0.008911477,-0.009216913
00:01.1,-0.001674981,-0.014404165
00:01.1,-0.001742752,-0.011310752
00:01.1,-0.00174961,-0.003238912
00:01.1,-0.001673458,-0.001689727
00:01.1,-0.005978513,0.009232147
00:01.1,-0.007997514,0.015893556
00:01.1,-0.008300408,0.019190876
00:01.1,-0.011846676,0.019909259
00:01.1,-0.003434463,0.014257382
00:01.1,-0.001776582,0.009487297
00:01.1,0.004638599,0.005528762
00:01.1,0.008916371,-0.002159171
00:01.1,0.006973744,-0.006974584
00:01.1,0.001360153,-0.009544717
00:01.1,-0.005970859,-0.014880838
00:01.1,-0.009103011,-0.012300257
00:01.1,-0.009219548,-0.009418829
00:01.1,-0.00282941,-0.006469518
00:01.1,0.002599035,0.005310153
00:01.1,0.011461599,0.016915385
00:01.1,0.021540718,0.009285471
00:01.1,0.031223774,0.008350727
00:01.1,0.030464305,0.011466516
00:01.1,0.031920854,0.012135551
00:01.1,0.025190216,0.006587978
00:01.1,0.013652158,0.002081611
00:01.1,0.00887387,-0.001460438
00:01.1,-0.000515555,-0.004124099
00:01.1,-0.003043514,-0.006001761
00:01.1,-0.010164606,-0.011660742
00:01.1,-0.010478335,-0.018998107
00:01.1,-0.011028405,-0.017525736
00:01.1,-0.016076175,-0.019509334
00:01.1,-0.023271602,-0.014201186
00:01.1,-0.026402524,-0.009154872
00:01.1,-0.021971315,-7.22E-05
00:01.1,-0.017492043,0.006253647
00:01.1,-0.008654407,0.010304398
00:01.1,-0.011203056,0.01251431
00:01.1,-0.011338917,0.022213541
00:01.1,-0.00530976,0.021930885
00:01.1,-0.009329048,0.015282247
00:01.1,-0.00551497,0.005111371
00:01.1,-0.006045256,-0.001936138
00:01.1,0.008870543,0.002482415
00:01.1,0.013973315,0.004497505
00:01.1,0.012519199,-0.008646204
00:01.1,0.011556561,-0.016384918
00:01.1,0.015345739,-0.015471147
00:01.1,0.017059285,-0.018101146
00:01.1,0.021616511,-0.017941142
00:01.1,0.018274918,-0.011356461
00:01.1,0.014616033,-0.001243452
00:01.1,0.001916048,0.005716498
00:01.1,-0.001831278,0.023513936
00:01.1,0.000200252,0.028178167
00:01.1,0.001061658,0.024038725
00:01.1,0.001073369,0.010080005
00:01.1,0.000505375,-0.004333979
00:01.1,-0.000419153,-0.013256871
00:01.1,-0.005991015,-0.008948197
00:01.1,-0.004926155,-0.01026041
00:01.1,-0.008818401,-0.001350446
00:01.1,-0.006362549,-0.004864671
00:01.1,-0.000188171,-0.011119395
00:01.1,-0.005723378,-0.018338481
00:01.1,-0.008914327,-0.01629902
00:01.1,-0.005810465,-0.021948058
00:01.1,0.000935281,-0.026970169
00:01.1,0.004820963,-0.01731102
00:01.1,-0.002394239,0.014197776
00:01.1,-0.00230436,0.056158707
00:01.1,0.006737395,0.073264234
00:01.1,0.006933642,0.045876738
00:01.1,0.001608906,0.01992147
00:01.1,-0.00217841,0.001267206
00:01.1,-0.009147055,0.010969163
00:01.1,-0.008383623,0.005572601
00:01.1,-0.011798363,-0.013220451
00:01.1,-0.008351682,-0.020570386
00:01.1,-0.005362691,-0.033512171
00:01.1,-0.007292156,-0.025981599
00:01.1,0.005961047,-0.028667256
00:01.1,0.013846122,-0.028036715
00:01.1,0.01759191,-0.020574044
00:01.1,0.018251359,-0.013757389
00:01.1,0.016715206,-0.003226427
00:01.1,0.013725553,0.004276976
00:01.2,0.005418316,0.009276696
00:01.2,-0.001049701,0.012242035
00:01.2,-0.010330833,0.013590307
00:01.2,-0.011473101,0.013689315
00:01.2,-0.011900892,0.012859808
00:01.2,-0.016193252,0.011377987
00:01.2,-0.01778895,0.005007097
00:01.2,-0.021825857,0.005084941
00:01.2,-0.01773716,6.99E-05
00:01.2,-0.017712938,-0.003154508
00:01.2,-0.015403693,-0.009442399
00:01.2,-0.016092306,-0.012453031
00:01.2,-0.013770581,-0.017497731
00:01.2,-0.01399609,-0.018614247
00:01.2,-0.002034407,-0.016949981
00:01.2,0.011991135,-0.004515162
00:01.2,0.025995843,0.013513505
00:01.2,0.029561566,0.028762626
00:01.2,0.030594135,0.027201276
00:01.2,0.029630888,0.028577354
00:01.2,0.027160171,0.040169191
00:01.2,0.028089764,0.020613106
00:01.2,0.02166057,-0.003163282
00:01.2,0.015432093,-0.014036855
00:01.2,0.009595108,-0.015960954
00:01.2,0.004296397,-0.016575767
00:01.2,-0.000358777,-0.020637941
00:01.2,-0.004303453,-0.021730293
00:01.2,-0.007505165,-0.016163412
00:01.2,-0.00996171,-0.015745308
00:01.2,-0.011696642,-0.009332743
00:01.2,-0.01275465,-0.004141416
00:01.2,-0.008725938,-5.94E-05
00:01.2,-0.006355539,0.007499072
00:01.2,-0.005166991,0.016449394
00:01.2,-0.009245346,0.016321959
00:01.2,-0.007141687,0.014930599
00:01.2,-0.005848803,0.012690247
00:01.2,-0.009574626,0.009945756
00:01.2,-0.01144254,0.002506695
00:01.2,-0.011855088,0.001738016
00:01.2,-0.006699358,-0.008361915
00:01.2,-0.002960921,-0.009768896
00:01.2,-0.004823533,-0.019050129
00:01.2,-0.005372607,-0.014185105
00:01.2,-0.009433038,-0.005391069
00:01.2,-0.006163806,-0.00383369
00:01.2,-0.003046827,-0.002289332
00:01.2,-0.004673379,-0.000835057
00:01.2,1.39E-05,0.000472322
00:01.2,0.003731187,0.006064997
00:01.2,0.002066486,0.009248123
00:01.2,0.006237127,0.01504066
00:01.2,0.004628943,0.012772542
00:01.2,0.008565156,0.005604646
00:01.2,0.006522798,0.004930826
00:01.2,0.009902204,-0.000750607
00:01.2,0.00724419,-0.004529877
00:01.2,0.005529406,-0.011246672
00:01.2,1.03E-05,-0.01455526
00:01.2,0.001610315,-0.019769682
00:01.2,0.002930319,-0.016465284
00:01.2,0.008399935,-0.012474134
00:01.2,0.011334078,-0.003735657
00:01.2,0.016769977,0.007227851
00:01.2,0.023003167,0.018530987
00:01.2,0.019877315,0.024358254
00:01.2,0.015457352,0.030489316
00:01.2,0.005881414,0.017961837
00:01.2,-0.001690938,0.008297902
00:01.2,-0.007439183,0.005556136
00:01.2,-0.016025178,-0.006255793
00:01.2,-0.016503779,-0.018053459
00:01.2,-0.011833206,-0.019651733
00:01.2,-0.01326758,-0.010170441
00:01.2,-0.013690234,0.000889015
00:01.2,-0.01776915,-0.005970178
00:01.2,-0.014546066,-0.009666723
00:01.2,-0.011419891,-0.010967177
00:01.2,-0.012927914,-0.006054073
00:01.2,-0.007982821,-0.002148299
00:01.2,-0.008328838,-0.003616699
00:01.2,-0.002768752,0.000788119
00:01.2,-0.002944105,0.008411447
00:01.2,0.002436969,0.012769215
00:01.2,0.006289937,0.014595648
00:01.2,0.008840795,0.018997259
00:01.2,0.010301877,0.010903309
00:01.2,0.019812811,0.004671891
00:01.2,0.015269992,3.65E-05
00:01.2,0.015768535,-0.003248253
00:01.2,0.010141021,-0.014349082
00:01.2,0.005589233,-0.020126859
00:01.2,0.006467104,-0.026352195
00:01.2,0.001519133,-0.018518386
00:01.2,0.002337552,-0.011456038
00:01.2,-0.002409991,-0.000817029
00:01.2,-0.005670965,0.020070842
00:01.2,-0.007695409,0.022785023
00:01.2,-0.008712379,0.022828786
00:01.3,-0.004458608,0.025410591
00:01.3,-0.006263113,0.015542138
00:01.3,-0.007061354,0.003174882
00:01.3,-0.011554468,-0.000767056
00:01.3,-0.013272918,0.000745612
00:01.3,-0.017420432,-0.003548174
00:01.3,-0.013474469,-0.002064618
00:01.3,-0.004709671,-0.006146315
00:01.3,0.006338559,-0.013222863
00:01.3,0.004358362,-0.012412735
00:01.3,0.008007329,-0.015655968
00:01.3,0.010237069,-0.011940605
00:01.3,0.011302801,-0.017553169
00:01.3,0.011438963,-0.014691943
00:01.3,0.010858212,-0.006677132
00:01.3,0.014221769,-0.000561187
00:01.3,0.010554313,0.003912332
00:01.3,0.007229912,0.006984926
00:01.3,0.004284488,0.013353379
00:01.3,0.006210702,0.01208417
00:01.3,0.001874228,0.006127608
00:01.3,-0.001499059,-0.002227972
00:01.3,-0.00848056,0.006621176
00:01.3,-0.012500457,0.016167451
00:01.3,-0.009747161,0.002718999
00:01.3,-0.007463595,0.003207159
00:01.3,-0.001109775,-0.010250546
00:01.3,-0.001769207,-0.008544164
00:01.3,-0.002161654,-0.006560373
00:01.3,-0.002329865,-0.004489486
00:01.3,-0.002315409,-0.002477467
00:01.3,-0.002157785,-0.005102494
00:01.3,0.002577309,-0.001295482
00:01.3,0.005184785,0.00614002
00:01.3,-0.002749364,0.015068292
00:01.3,0.001505924,0.023923306
00:01.3,0.003862401,0.022676215
00:01.3,0.004795625,0.015038015
00:01.3,0.000234794,0.012867693
00:01.3,-0.00281658,0.013992086
00:01.3,-0.004646027,-0.005592119
00:01.3,-0.005509737,-0.022673329
00:01.3,-0.010104492,-0.027532469
00:01.3,-0.007484006,-0.033117283
00:01.3,-0.009517143,-0.024808638
00:01.3,-0.005116713,-0.026295597
00:01.3,0.002920874,-0.015356395
00:01.3,0.007987972,-0.006479991
00:01.3,0.00624179,0.00050599
00:01.3,0.004900378,0.005785028
00:01.3,0.003875858,0.014018657
00:01.3,-0.001375383,0.018728679
00:01.3,-0.004240788,0.0206654
00:01.3,-0.000854473,0.020488184
00:01.3,-0.007338852,0.014298428
00:01.3,-0.010213788,0.013728734
00:01.3,-0.005994282,0.007490805
00:01.3,-0.002173745,0.002682362
00:01.3,0.005603635,-0.005373519
00:01.3,0.010598092,-0.005721872
00:01.3,0.013338828,-0.010233811
00:01.3,0.023243057,-0.007834667
00:01.3,0.018447028,-0.005813666
00:01.3,0.018249884,-0.00413654
00:01.3,0.016125569,0.001701902
00:01.3,0.012743238,0.000592601
00:01.3,0.004182884,0.004268784
00:01.3,0.002030246,0.00600395
00:01.3,-0.000598689,0.010777828
00:01.3,-0.00335922,0.012346523
00:01.3,-0.014932541,0.011621641
00:01.3,-0.017316788,0.004890427
00:01.3,-0.018174853,-0.000556306
00:01.3,-0.017820811,-0.00925329
00:01.3,-0.021011997,-0.014617436
00:01.3,-0.016862703,-0.03519785
00:01.3,-0.01730012,-0.040428184
00:01.3,-0.015762296,-0.021846775
00:01.3,-0.003951558,-0.003447702
00:01.3,-0.000217999,-9.60E-05
00:01.3,0.002790002,0.007254466
00:01.3,0.0051131,0.016362013
00:01.3,0.006802202,0.034510825
00:01.3,0.012387396,0.029309034
00:01.3,0.015262006,0.01439181
00:01.3,0.016052531,0.003595676
00:01.3,0.010829695,0.000665305
00:01.3,0.011198525,0.002753097
00:01.3,0.010317954,-0.005768406
00:01.3,0.008594397,-0.006555659
00:01.3,0.001893431,-0.01143574
00:01.3,-0.002840491,-0.013778496
00:01.3,-0.005950108,-0.014188968
00:01.3,-0.012214435,-0.017660037
00:01.3,-0.010765189,-0.013492674
00:01.3,-0.009073898,-0.004816107
00:01.3,-0.00279427,-0.002990222
00:01.3,-0.007642544,0.003522448
00:01.3,-0.009799407,0.012320123
00:01.3,-0.005500727,0.012666239
00:01.4,-0.006485184,0.016624536
00:01.4,-0.006017579,0.017758725
00:01.4,-0.000114977,0.003416152
00:01.4,0.008624438,-0.001274091
00:01.4,0.009299545,-0.004122205
00:01.4,0.004896277,-0.005548863
00:01.4,0.00668289,-0.001442523
00:01.4,0.012016867,0.005692749
00:01.4,0.014418036,0.005019661
00:01.4,0.019087818,0.008503918
00:01.4,0.015508185,-0.003798005
00:01.4,0.006963687,-0.011199738
00:01.4,0.000474719,-0.01034354
00:01.4,-0.008714831,-0.004385602
00:01.4,-0.00972914,-0.004720611
00:01.4,-0.010045704,0.000147423
00:01.4,-0.014277782,0.003298875
00:01.4,-0.011412163,0.009560176
00:01.4,-0.013265611,0.012569685
00:01.4,-0.013182882,0.017623624
00:01.4,-0.020673901,0.009807312
00:01.4,-0.018399503,-0.000866024
00:01.4,-0.014536995,-0.021304414
00:01.4,-0.014255096,-0.018805824
00:01.4,-0.011438327,0.024541987
00:01.4,0.006338947,0.0081577
00:01.4,0.022743296,-0.016547795
00:01.4,0.027692059,-0.012642438
00:01.4,0.033841509,-0.009341476
00:01.4,0.035286397,-0.011047943
00:01.4,0.037728164,-0.011029714
00:01.4,0.02660607,-0.009790251
00:01.4,0.016707698,-0.003280639
00:01.4,0.003649479,0.005951279
00:01.4,-0.005858309,0.011512686
00:01.4,-0.003436068,0.009744368
00:01.4,-0.002940607,0.012490205
00:01.4,-0.003721969,0.008648069
00:01.4,-0.005256038,0.005479331
00:01.4,-0.011602009,0.002921483
00:01.4,-0.015775295,-0.003559179
00:01.4,-0.018106686,-0.007353161
00:01.4,-0.023385085,-0.009079243
00:01.4,-0.020768188,-0.009267999
00:01.4,-0.017764507,-0.008368446
00:01.4,-0.01454235,-0.006754688
00:01.4,-0.01125063,-0.004732572
00:01.4,-0.008017352,0.001924711
00:01.4,-0.00047783,0.001885285
00:01.4,0.004611624,0.011180047
00:01.4,0.007745261,0.01180989
00:01.4,0.009350973,0.015891738
00:01.4,0.00979603,0.017035168
00:01.4,0.004921409,0.016039364
00:01.4,0.001660594,0.009108257
00:01.4,-0.000327776,-0.000997191
00:01.4,-0.001339525,-0.007707602
00:01.4,0.002843172,-0.011691578
00:01.4,0.000863958,-0.000124123
00:01.4,-0.004695997,-0.006945558
00:01.4,-0.007395418,-0.019850533
00:01.4,-0.007985222,-0.021658041
00:01.4,-0.007096003,-0.007291885
00:01.4,-0.005248618,-0.002094247
00:01.4,-0.002864707,-0.002902217
00:01.4,0.00419395,0.001704761
00:01.4,0.013472503,0.004743939
00:01.4,0.014200479,0.015460991
00:01.4,0.0184233,0.016310068
00:01.4,0.024169767,0.010842502
00:01.4,0.016590137,0.006318553
00:01.4,0.014710061,0.002667502
00:01.4,0.002821646,-0.000187406
00:01.4,-0.000799611,-0.006798145
00:01.4,-0.008039212,-0.010576332
00:01.4,-0.012318067,-0.012163594
00:01.4,-0.014286741,-0.012114099
00:01.4,-0.014508457,-0.010900318
00:01.4,-0.013465161,-0.008918929
00:01.4,-0.007092515,-0.006496856
00:01.4,-0.002399673,-0.003897413
00:01.4,0.005367823,-0.001326515
00:01.4,0.009792429,0.005532094
00:01.4,0.007186964,0.014367918
00:01.4,0.004893819,0.018995995
00:01.4,0.002921447,0.020407295
00:01.4,-0.003202217,0.023925567
00:01.4,-0.002343632,0.014660737
00:01.4,0.002722849,-0.001824024
00:01.4,0.000919484,-0.007864119
00:01.4,-0.000470769,-0.006931668
00:01.4,-0.001490912,-0.015184812
00:01.4,0.002285441,-0.014724683
00:01.4,-0.000329573,-0.013273727
00:01.4,-0.002151157,-0.011169203
00:01.4,0.001162142,-0.00869094
00:01.4,-0.001652447,-0.006066074
00:01.4,0.000995596,-0.003473859
00:01.4,-0.002222183,0.003420478
00:01.4,-0.004243969,0.012318115
00:01.5,-0.000834547,0.012569127
00:01.5,-0.00334715,0.016308816
00:01.5,-0.00473799,0.017158683
00:01.5,-0.00525486,0.011453479
00:01.5,-0.005114926,0.006542154
00:01.5,-0.004505888,0.002426188
00:01.5,0.000883656,-0.000914003
00:01.5,-0.000222191,-0.007986742
00:01.5,-0.000702544,-0.012171965
00:01.5,-0.005200685,-0.014090046
00:01.5,-0.00718931,-0.018753817
00:01.5,-0.007344889,-0.015488083
00:01.5,-0.001763139,-0.007448986
00:01.5,0.002417575,0.002916488
00:01.5,0.009849776,0.013771855
00:01.5,0.009566752,0.010386562
00:01.5,0.008966358,0.002950858
00:01.5,0.003650166,0.00260978
00:01.5,0.004829717,0.011067422
00:01.5,0.005339264,0.01057816
00:01.5,0.005322635,0.004512277
00:01.5,0.004909345,0.004438665
00:01.5,0.004214143,-0.00547107
00:01.5,0.003336853,-0.007047364
00:01.5,0.002362516,-0.016737249
00:01.5,0.005832815,-0.016893646
00:01.5,0.002661955,-0.015455633
00:01.5,0.000123395,-0.012944081
00:01.5,-0.001837059,-0.00979171
00:01.5,0.001194027,-0.00635029
00:01.5,-0.001985844,0.001573015
00:01.5,-0.004207971,0.007094386
00:01.5,-0.005619184,0.01061794
00:01.5,-0.00635759,0.012512418
00:01.5,-0.006551557,0.017582139
00:01.5,-0.006318865,0.019453391
00:01.5,-0.001295028,0.01447594
00:01.5,-0.002717618,0.014492707
00:01.5,-0.007911186,0.008391209
00:01.5,-0.010361454,0.003413888
00:01.5,-0.019706605,-0.00947025
00:01.5,-0.01425238,-0.017013187
00:01.5,-0.008951804,-0.011488131
00:01.5,0.000433599,-0.00728335
00:01.5,0.007065624,-0.013112486
00:01.5,0.015864326,-0.01543122
00:01.5,0.016099337,-0.006237445
00:01.5,0.019846147,0.004805845
00:01.5,0.016213039,0.00701738
00:01.5,0.012650071,-0.000902817
00:01.5,0.009261478,0.008081191
00:01.5,0.010600533,0.026493983
00:01.5,0.005585859,0.030786661
00:01.5,0.001488727,0.016694181
00:01.5,-0.001753182,0.005766766
00:01.5,0.000260272,-0.002398909
00:01.5,-0.003691033,-0.008187847
00:01.5,-0.001988462,-0.016435277
00:01.5,-0.001474222,-0.02081058
00:01.5,-0.001754103,-0.02218738
00:01.5,-0.002511456,-0.021326004
00:01.5,0.000972736,-0.018879483
00:01.5,-0.006727336,-0.015399987
00:01.5,-0.007103425,-0.011345679
00:01.5,-0.007379256,-0.00261696
00:01.5,-0.007492166,0.008293196
00:01.5,-0.011880485,0.023991805
00:01.5,-0.009392582,0.027535651
00:01.5,-0.011738192,0.03194375
00:01.5,-0.012181771,0.027115406
00:01.5,-0.011233407,0.003269099
00:01.5,-0.013800286,-0.007805352
00:01.5,-0.013577061,-0.010040803
00:01.5,-0.020364646,-0.011057024
00:01.5,-0.02153194,-0.011119544
00:01.5,-0.018772753,-0.005992387
00:01.5,-0.009016043,-0.007023674
00:01.5,-6.72E-05,0.001781283
00:01.5,0.016678832,-0.006569776
00:01.5,0.036609057,-0.020090954
00:01.5,0.042919215,-0.012927366
00:01.5,0.039850686,-0.006980584
00:01.5,0.035297744,0.002300891
00:01.5,0.029764181,0.017278193
00:01.5,0.014743877,0.029735243
00:01.5,0.008420034,0.025748869
00:01.5,0.016722079,0.007248512
00:01.5,0.015020074,-0.00518317
00:01.5,0.007057328,-0.003826299
00:01.5,0.004713071,-0.003091761
00:01.5,0.001352457,-0.007257842
00:01.5,-0.006943254,-0.00949806
00:01.5,-0.013072455,-0.014719807
00:01.5,-0.012800592,-0.016630437
00:01.5,-0.017515464,-0.011641553
00:01.5,-0.020235255,-0.011641317
00:01.5,-0.0212908,-0.005548429
00:01.5,-0.01652634,0.0038462
00:01.5,-0.017379882,0.005478808
00:01.5,-0.016893663,0.00667172
00:01.6,-0.010928261,0.016383676
00:01.6,-0.010922299,0.016830761
00:01.6,-0.005434446,0.020311978
00:01.6,-0.005915887,0.025059534
00:01.6,-0.005401864,0.016382653
00:01.6,-0.004200906,0.004485007
00:01.6,-0.002573661,-0.008440433
00:01.6,-0.00073544,-0.011847468
00:01.6,0.001140742,-0.017972596
00:01.6,-0.001550295,-0.025006473
00:01.6,0.002235137,-0.018235553
00:01.6,0.005199763,-0.012328219
00:01.6,0.002918218,-0.011755489
00:01.6,0.006594669,-0.000884076
00:01.6,0.009072977,0.010892266
00:01.6,0.010520893,0.008654197
00:01.6,0.006632436,0.011385663
00:01.6,0.008709539,0.007833557
00:01.6,0.014144463,0.0051371
00:01.6,0.012020689,0.007608307
00:01.6,0.009773904,0.017380917
00:01.6,0.007502775,0.012610661
00:01.6,0.005291285,0.00365802
00:01.6,0.003208427,0.001802413
00:01.6,0.005779357,-0.013505141
00:01.6,-0.002569874,-0.022107406
00:01.6,-0.003440796,-0.01663298
00:01.6,-0.004135206,-0.011771059
00:01.6,-0.004642772,-0.007543858
00:01.6,-0.000491657,0.000515963
00:01.6,-0.00283174,-0.003192793
00:01.6,-0.004447175,-0.000271597
00:01.6,-0.0054428,0.006472573
00:01.6,-0.001448558,0.014893124
00:01.6,-0.003702971,0.014465689
00:01.6,-0.000595089,0.012955908
00:01.6,-0.003436271,0.015207643
00:01.6,-0.005150463,0.005915569
00:01.6,-0.005961673,0.003701232
00:01.6,-0.006070658,0.001444727
00:01.6,-0.005654992,-0.005169707
00:01.6,-0.004869436,-0.01382851
00:01.6,-0.003846574,-0.018341679
00:01.6,-0.002697711,-0.015222691
00:01.6,-0.001514024,-0.011988556
00:01.6,-0.000367915,-0.008797321
00:01.6,0.000685454,-0.005773727
00:01.6,0.001606485,0.001459066
00:01.6,0.002369386,0.001691769
00:01.6,0.002960343,0.006582802
00:01.6,0.003375702,0.009353439
00:01.6,0.003620162,0.014950889
00:01.6,0.003705054,0.012644522
00:01.6,0.003646705,0.010015926
00:01.6,0.00346493,0.016217254
00:01.6,0.003181674,0.009129101
00:01.6,0.002819812,-0.010076409
00:01.6,0.002402118,-0.012523819
00:01.6,0.001950412,-0.004385583
00:01.6,-0.002986145,-0.008355672
00:01.6,-0.005717808,-0.010327223
00:01.6,-0.002315714,-0.01077177
00:01.6,9.00E-05,-0.014567612
00:01.6,0.006145807,-0.010918832
00:01.6,0.004867317,-0.007345221
00:01.6,0.008096064,0.000472448
00:01.6,0.004727326,0.005751131
00:01.6,0.0020196,0.013444127
00:01.6,-0.00456375,0.012835901
00:01.6,-0.00394588,0.011530683
00:01.6,-0.00342158,0.009767297
00:01.6,-0.002968525,0.007745123
00:01.6,-0.002569583,0.005627063
00:01.6,-0.002212022,-0.000928425
00:01.6,0.002584263,-0.00515042
00:01.6,0.000682677,-0.011995466
00:01.6,-0.000683559,-0.015214764
00:01.6,-0.006069802,-0.011259325
00:01.6,-0.004411615,-0.007582002
00:01.6,0.001460754,0.004665282
00:01.6,0.000425827,0.007605769
00:01.6,-0.000266154,-0.004421277
00:01.6,-0.000681064,-0.011027104
00:01.6,-0.000877779,-0.004621361
00:01.6,0.003562759,0.009253313
00:01.6,0.001452601,0.021890737
00:01.6,0.008924464,0.027901944
00:01.6,0.00804494,0.024481405
00:01.6,0.002024215,0.024187621
00:01.6,-0.002174407,0.012034376
00:01.6,-0.004876778,-0.00651642
00:01.6,-0.010846497,-0.018375039
00:01.6,-0.009200983,-0.029387966
00:01.6,-0.007398363,-0.029616566
00:01.6,-0.010021745,-0.022861786
00:01.6,-0.010489956,-0.012129056
00:01.6,-0.009431223,-0.004203415
00:01.6,-0.002898042,0.005867122
00:01.6,-0.002461068,0.016309358
00:01.6,-0.001232398,0.016915664
00:01.7,0.004908354,0.015717261
00:01.7,0.004543338,0.00883563
00:01.7,0.004693452,0.003429633
00:01.7,0.00512175,-0.000666513
00:01.7,0.010119251,0.009795614
00:01.7,0.01735425,-0.00324422
00:01.7,0.01615217,-0.01158123
00:01.7,0.009687602,-0.016179549
00:01.7,0.00491094,-0.022356395
00:01.7,0.005971734,-0.010761228
00:01.7,0.005922599,0.001875495
00:01.7,0.005086382,-0.003859039
00:01.7,0.008206849,-0.002337477
00:01.7,0.008838113,-0.005402126
00:01.7,0.00772027,0.002524537
00:01.7,0.005467363,0.003045351
00:01.7,0.002578628,0.00793236
00:01.7,-0.000550176,0.010500904
00:01.7,-0.003615479,0.011303659
00:01.7,-0.006394744,0.010813565
00:01.7,-0.013206617,0.00942985
00:01.7,-0.012815647,0.003013019
00:01.7,-0.021350214,-0.001495366
00:01.7,-0.025377674,-0.004438828
00:01.7,-0.021491984,-0.010595215
00:01.7,-0.017287845,-0.013564368
00:01.7,-0.008524923,-0.014141752
00:01.7,-0.00653656,-0.013004274
00:01.7,-0.008716434,-0.006248306
00:01.7,-0.013065926,-0.001012591
00:01.7,-0.009161063,0.002884667
00:01.7,-0.004825782,0.00562076
00:01.7,-0.000454802,0.011837608
00:01.7,0.003652222,0.015026224
00:01.7,0.011750627,0.01589722
00:01.7,0.021497009,0.015063587
00:01.7,0.026696825,0.008575824
00:01.7,0.028350336,-0.000928939
00:01.7,0.022863206,-0.006978681
00:01.7,0.022136601,-0.00584494
00:01.7,0.015116268,-0.004841058
00:01.7,0.00910086,0.000513488
00:01.7,-0.000417066,0.003556133
00:01.7,-0.006813632,0.000382304
00:01.7,-0.01070473,0.007085405
00:01.7,-0.012628761,-0.007719587
00:01.7,-0.008581163,-0.016373755
00:01.7,-0.010104492,-0.01135243
00:01.7,-0.005836678,-0.007215003
00:01.7,0.001653252,-0.0083466
00:01.7,0.001470652,0.000951087
00:01.7,0.001060376,0.006859674
00:01.7,0.004992207,0.005632573
00:01.7,0.002201559,0.004569212
00:01.7,-0.004493352,0.003649614
00:01.7,-0.003992405,0.002856917
00:01.7,-0.003574157,-0.006765204
00:01.7,-0.00320583,-0.020827563
00:01.7,-0.002864487,-0.027112633
00:01.7,-0.002535231,-0.000861409
00:01.7,-0.002209577,0.016160833
00:01.7,-0.001883986,0.012454929
00:01.7,-0.001558578,0.000763123
00:01.7,-0.00123602,-0.00580475
00:01.7,-0.00092058,-0.00408162
00:01.7,0.003853669,0.011581657
00:01.7,0.006409724,0.034240011
00:01.7,0.00282924,0.03635174
00:01.7,0.000250828,0.016279073
00:01.7,-0.001494547,0.002062207
00:01.7,-0.002560357,-0.002933386
00:01.7,-0.003084553,-0.001877367
00:01.7,-0.003189748,-0.006196904
00:01.7,-0.002983542,-0.00891599
00:01.7,-0.00255899,-0.014816229
00:01.7,0.002475814,-0.021972666
00:01.7,0.005383241,-0.020042736
00:01.7,0.002196383,-0.016937951
00:01.7,1.60E-05,-0.013144874
00:01.7,-0.001355179,-0.009057223
00:01.7,-0.002090837,-0.000513833
00:01.7,-0.002341945,0.001107594
00:01.7,-0.002238247,0.007338515
00:01.7,-0.00188961,0.015780153
00:01.7,0.003083545,0.015705489
00:01.7,0.001463956,0.019192198
00:01.7,0.000421858,0.010878457
00:01.7,-0.000174545,0.004885645
00:01.7,-0.009379594,0.000758693
00:01.7,-0.009473254,-0.001894142
00:01.7,-0.008320723,0.005534722
00:01.7,-0.001899233,0.000477011
00:01.7,0.002756241,-0.002844918
00:01.7,0.010387396,-0.004798906
00:01.7,0.010103414,-0.005701414
00:01.7,0.004894724,-0.005821938
00:01.7,0.006028967,-0.014329262
00:01.7,0.006387622,-0.013596944
00:01.7,0.010624644,-0.002623145
00:01.7,0.00775856,0.000270883
00:01.8,0.009629643,0.006935873
00:01.8,0.005127776,0.010766394
00:01.8,0.001502289,0.021335011
00:01.8,-0.001324922,0.030317131
00:01.8,0.001035977,0.023684153
00:01.8,0.00183035,0.007734432
00:01.8,-0.00293839,-0.003719476
00:01.8,-0.006209445,-0.011436162
00:01.8,-0.008228131,-0.016101025
00:01.8,-0.009221569,-0.022799231
00:01.8,-0.004926686,-0.020933039
00:01.8,-0.006674239,-0.018210024
00:01.8,-0.007402481,-0.014957794
00:01.8,-0.007344946,-0.006979122
00:01.8,-0.011178537,-0.005640083
00:01.8,-0.003468242,0.000583111
00:01.8,-0.007209652,0.004798392
00:01.8,-0.00407151,0.011859817
00:01.8,-0.005865092,0.015433535
00:01.8,-0.010392058,0.016372619
00:01.8,-0.007056754,0.010932873
00:01.8,-0.008009247,0.001925472
00:01.8,-0.002381909,-0.008502554
00:01.8,0.006863358,-0.027714087
00:01.8,0.013000188,-0.041265488
00:01.8,0.016577901,-0.027214203
00:01.8,0.018097173,0.016286448
00:01.8,0.026951317,0.03799013
00:01.8,0.025727507,0.035058465
00:01.8,0.013623076,0.025836475
00:01.8,0.009141221,0.031118253
00:01.8,0.005064904,0.021971347
00:01.8,0.001469938,-5.84E-06
00:01.8,0.002875353,-0.005588762
00:01.8,0.002632488,-0.009613198
00:01.8,-0.003170801,-0.012272405
00:01.8,-0.002937903,-0.013759525
00:01.8,-0.003538722,-0.009792948
00:01.8,-0.00908219,-0.01169777
00:01.8,-0.01261524,-0.012416971
00:01.8,-0.014484824,-0.016667895
00:01.8,-0.010541326,-0.018003413
00:01.8,-0.012221357,-0.017182609
00:01.8,-0.012560378,-0.014854097
00:01.8,-0.011879729,-0.011562962
00:01.8,-0.01046315,-0.007758208
00:01.8,-0.013028043,-0.003800606
00:01.8,-0.013112519,0.004500146
00:01.8,-0.011448853,0.005792252
00:01.8,-0.008649491,0.007159216
00:01.8,-0.005216569,0.017365482
00:01.8,-0.001551745,0.022943737
00:01.8,0.00650479,0.02940215
00:01.8,0.012050449,0.039913345
00:01.8,0.01995334,0.033524357
00:01.8,0.01944181,0.012407331
00:01.8,0.013617047,0.00628252
00:01.8,0.00937703,0.009678621
00:01.8,0.001895117,-0.003999917
00:01.8,0.010961815,-0.044821702
00:01.8,0.015763769,-0.057829075
00:01.8,0.017308921,-0.029602481
00:01.8,0.011994278,-0.014071612
00:01.8,0.011699387,-0.011920712
00:01.8,0.005338626,-3.79E-05
00:01.8,0.000172546,0.007843602
00:01.8,-0.003877376,0.016999457
00:01.8,-0.006902658,0.012519059
00:01.8,-0.00900471,-0.004501187
00:01.8,-0.010291677,-0.000756978
00:01.8,-0.015346362,0.010893789
00:01.8,-0.013138511,0.00832457
00:01.8,-0.015479006,0.001670902
00:01.8,-0.011244732,-0.002432308
00:01.8,-0.003214487,0.004364877
00:01.8,-0.002464089,-0.00966873
00:01.8,-0.006173261,-0.026095772
00:01.8,-0.012169804,-0.028739387
00:01.8,-0.005422098,-0.01335759
00:01.8,0.008619556,0.007439513
00:01.8,0.007906355,0.011784653
00:01.8,0.007116554,0.023491308
00:01.8,0.006279522,0.024973201
00:01.8,0.009892853,0.019771969
00:01.8,0.006837439,0.019633254
00:01.8,0.004363212,0.022317996
00:01.8,0.002401102,0.021680366
00:01.8,0.000886103,0.005308127
00:01.8,0.004228279,-0.001475817
00:01.8,0.00122802,0.011553429
00:01.8,-0.005409043,0.008458642
00:01.8,-0.009146163,-0.02229364
00:01.8,-0.006193425,-0.035687763
00:01.8,-0.003805673,-0.045816258
00:01.8,0.002553291,-0.065869242
00:01.8,0.001802734,-0.062455364
00:01.8,0.00123075,-0.017256808
00:01.8,0.009748203,0.036392838
00:01.8,0.013984144,0.072196528
00:01.8,0.010558834,0.057272032
00:01.9,0.002594628,0.038784083
00:01.9,-0.003028066,0.032630209
00:01.9,-0.006712833,0.020639354
00:01.9,-0.008824595,0.005782581
00:01.9,-0.005219218,-0.005215843
00:01.9,-0.002858083,-0.003976737
00:01.9,-0.005908045,-0.017781889
00:01.9,-0.011915838,-0.048342071
00:01.9,-0.014560746,-0.059003849
00:01.9,-0.019176539,-0.01107957
00:01.9,-0.015353078,-0.011951271
00:01.9,-0.001989927,-0.019982403
00:01.9,0.016096132,-0.017934868
00:01.9,0.02635459,-0.040899213
00:01.9,0.0216616,-0.040674567
00:01.9,0.012449262,0.001200376
00:01.9,0.010065236,0.04704468
00:01.9,0.002966664,0.07286603
00:01.9,-0.006444473,0.092220254
00:01.9,-0.011898072,0.118090175
00:01.9,-0.009836373,0.076895356
00:01.9,-0.00771434,0.015077729
00:01.9,0.016717797,-0.054281775
00:01.9,0.025549179,-0.085815877
00:01.9,0.014767161,-0.045759611
00:01.9,-0.007268179,0.017072372
00:01.9,-0.020749381,0.029790698
00:01.9,-0.027564008,0.028166369
00:01.9,-0.024871735,-0.00046085
00:01.9,-0.011793726,-0.038696572
00:01.9,-0.002285922,-0.114777401
00:01.9,-0.004670739,-0.15653871
00:01.9,-0.000581152,-0.095457368
00:01.9,-0.001786222,-0.060488854
00:01.9,-0.001570136,-0.025595903
00:01.9,-0.004902309,0.006819741
00:01.9,-0.009982556,0.052974474
00:01.9,-0.006539285,0.05383797
00:01.9,-0.002510111,0.075696513
00:01.9,0.006099633,0.116558149
00:01.9,0.01673408,0.119224817
00:01.9,0.014086814,0.101200663
00:01.9,0.007898061,0.066200711
00:01.9,2.99E-05,0.00944297
00:01.9,0.009753316,-0.00674547
00:01.9,0.020308837,-0.014771817
00:01.9,0.025705844,-0.02608832
00:01.9,0.022650981,-0.056165468
00:01.9,0.02778591,-0.089983635
00:01.9,0.028093901,-0.0728072
00:01.9,0.029438222,-0.011669525
00:01.9,0.026317788,0.017388718
00:01.9,0.024726851,-0.01170962
00:01.9,0.01477168,0.060570423
00:01.9,-0.004260491,0.044423968
00:01.9,-0.018336516,-0.011517806
00:01.9,-0.019131072,-0.019644296
00:01.9,-0.016126454,-0.028958231
00:01.9,0.002411839,-0.042297632
00:01.9,-0.002683485,-0.042940106
00:01.9,-0.026329163,-0.039638463
00:01.9,-0.050029628,-0.033619091
00:01.9,-0.062134538,-0.016973946
00:01.9,-0.051874436,0.018454863
00:01.9,-0.023685161,0.012911028
00:01.9,-0.017975086,-0.012733867
00:01.9,-0.012760312,-0.021252947
00:01.9,-0.003570888,-0.013666124
00:01.9,-0.019442491,0.012358825
00:01.9,-0.030940456,0.047318235
00:01.9,-0.033717953,0.039410193
00:01.9,-0.034769613,0.010064041
00:01.9,-0.038471267,0.005932777
00:01.9,-0.033759944,-0.018232578
00:01.9,-0.010185245,-0.016412243
00:01.9,0.018779593,-0.012009134
00:01.9,0.057452828,-0.028527694
00:01.9,0.10258399,0.078268379
00:01.9,0.106223889,0.156004369
00:01.9,0.087346174,0.095200412
00:01.9,0.046279259,0.020862553
00:01.9,0.012502937,-0.028793361
00:01.9,0.008257982,-0.049850527
00:01.9,0.026658308,-0.033200197
00:01.9,0.043339189,-0.017054446
00:01.9,0.038850293,-0.015945775
00:01.9,0.025573365,-0.015052387
00:01.9,0.003051963,-0.018715374
00:01.9,-0.027885074,-0.024643248
00:01.9,-0.047675256,-0.040077075
00:01.9,-0.058478713,-0.050470598
00:01.9,-0.057746001,-0.047207758
00:01.9,-0.058311544,-0.048592638
00:01.9,-0.058888249,-0.011668635
00:01.9,-0.049681097,0.036740966
00:01.9,-0.034590475,0.042813536
00:01.9,-0.025621692,0.022044176
00:01.9,-0.020707043,0.004408708
00:01.9,-0.013794712,0.021564024
00:01.9,-0.005913266,0.053733811
00:02.0,0.006599158,0.037861798
00:02.0,0.020928573,0.011424991
00:02.0,0.03499103,0.020926215
00:02.0,0.060736094,0.03329457
00:02.0,0.108501099,0.010008479
00:02.0,0.164034918,-0.006396994
00:02.0,0.145534858,-0.026116548
00:02.0,0.058915727,-0.02797504
00:02.0,-0.018036922,-0.049762577
00:02.0,-0.060044318,-0.054326836
00:02.0,-0.076538853,-0.002520347
00:02.0,-0.07526122,0.038933601
00:02.0,-0.080343559,0.016236512
00:02.0,-0.056627184,-0.003585436
00:02.0,-0.056991518,-0.015377057
00:02.0,-0.066807523,-0.02548101
00:02.0,-0.07163959,-0.010938961
00:02.0,-0.071926273,-0.000340725
00:02.0,-0.072735213,0.006958202
00:02.0,-0.072559945,0.020486465
00:02.0,-0.061556034,0.022958836
00:02.0,-0.030284725,0.031577073
00:02.0,-0.001982254,0.002502708
00:02.0,0.022481725,0.006584675
00:02.0,0.051524185,0.012534278
00:02.0,0.071569502,-0.012419169
00:02.0,0.070330583,0.004217726
00:02.0,0.082383811,-0.031342551
00:02.0,0.091652274,-0.054984599
00:02.0,0.110713147,-0.005911311
00:02.0,0.128135622,0.016246179
00:02.0,0.136735663,-0.015948869
00:02.0,0.105839245,-0.033506472
00:02.0,0.069703087,0.022534372
00:02.0,0.041159075,0.073580496
00:02.0,0.01427738,0.080307588
00:02.0,-0.000967377,0.058250915
00:02.0,-0.02167948,0.001795757
00:02.0,-0.039644551,-0.04399512
00:02.0,-0.063235335,-0.016159797
00:02.0,-0.08328516,-0.021748718
00:02.0,-0.094172671,-0.033633146
00:02.0,-0.10198953,-0.025562324
00:02.0,-0.110526197,-0.005717183
00:02.0,-0.094987154,0.010669863
00:02.0,-0.069305621,0.018857135
00:02.0,-0.061034098,-0.028154753
00:02.0,-0.049722485,-0.108810507
00:02.0,-0.03219289,-0.102982849
00:02.0,-0.016192453,-0.052298974
0:00:02,0.00243836,0.035594832
00:02.0,0.007880148,0.09790767
00:02.0,0.013925387,0.106625751
00:02.0,0.037791949,0.084963165
00:02.0,0.047824349,0.067871854
00:02.0,0.052576359,0.027254364
00:02.0,0.035271656,-0.038045388
00:02.0,0.036997169,-0.054127652
00:02.0,0.04531797,-0.02470237
00:02.0,0.060845744,0.003326325
00:02.0,0.060698301,-0.012329063
00:02.0,0.041182943,-0.030793805
00:02.0,0.010918661,-0.03553753
00:02.0,-0.019028751,-0.03994729
00:02.0,-0.0325871,-0.047658719
00:02.0,-0.03907961,-0.03362542
00:02.0,-0.040233821,-0.015933109
00:02.0,-0.03752438,-0.001688736
00:02.0,-0.036663517,0.058546968
00:02.0,-0.03647773,0.078262523
00:02.0,-0.045098498,0.057094745
00:02.0,-0.035254534,0.047853686
00:02.0,-0.00544209,0.014726029
00:02.0,0.016278446,-0.012438237
00:02.0,0.071324028,-0.024527064
00:02.0,0.132059902,-0.021610025
00:02.0,0.144430593,-0.027435258
00:02.0,0.097317129,-0.001970009
00:02.0,0.047851268,0.035880636
00:02.0,0.058534659,0.005887215
00:02.0,0.07256081,-0.013802784
00:02.0,0.077053189,-0.043193612
00:02.0,0.020153655,-0.048506178
00:02.0,-0.069977716,-0.02455562
00:02.0,-0.140671626,0.00211246
00:02.0,-0.187281534,0.010234871
00:02.0,-0.181503281,0.015191304
00:02.0,-0.177674249,0.008690535
00:02.0,-0.19525452,-0.013235848
00:02.0,-0.194619641,-0.020047594
00:02.0,-0.188779786,0.03249003
00:02.0,-0.168143332,0.040211249
00:02.0,-0.128266722,0.001490013
00:02.0,-0.064059779,-0.030859992
00:02.0,0.006779105,-0.033658102
00:02.0,0.080883145,-0.031079141
00:02.0,0.181703284,-0.002594818
00:02.0,0.274998784,0.034835696
00:02.0,0.348007232,0.056135558
00:02.0,0.339807302,0.10969495
00:02.0,0.255961895,0.073849604
00:02.1,0.201305225,-0.05027771
00:02.1,0.184092164,-0.078140058
00:02.1,0.161358297,0.036683321
00:02.1,0.125377417,0.093726642
00:02.1,0.108714275,0.015153724
00:02.1,0.075984932,-0.023365425
00:02.1,-0.001583587,-0.020458117
00:02.1,-0.069510028,-0.068408407
00:02.1,-0.116805688,-0.088693514
00:02.1,-0.155758888,-0.05336931
00:02.1,-0.189489111,-0.004372549
00:02.1,-0.206331566,-0.013856203
00:02.1,-0.20918721,0.004653509
00:02.1,-0.200825989,0.00732883
00:02.1,-0.174901292,0.013488521
00:02.1,-0.1426709,0.034525119
00:02.1,-0.120781094,0.026585914
00:02.1,-0.091808692,0.023673078
00:02.1,-0.08626458,0.023757568
00:02.1,-0.067025363,0.002954072
00:02.1,-0.030707516,-0.019901758
00:02.1,0.009388313,-0.023873109
00:02.1,0.129232377,-0.029079612
00:02.1,0.223377943,-0.047599465
00:02.1,0.152296782,-0.062982947
00:02.1,0.042981826,-0.029438
00:02.1,-0.008863122,0.103066929
00:02.1,0.001571593,0.113041356
00:02.1,0.044721313,0.018989041
00:02.1,0.054318637,-0.027695112
00:02.1,0.024009628,-0.04994306
00:02.1,0.003009886,-0.036768489
00:02.1,-0.019434232,-0.011572784
00:02.1,-0.040511027,-0.012378634
00:02.1,-0.076199368,-0.001941407
00:02.1,-0.098654196,0.00110713
00:02.1,-0.100608453,0.012834863
00:02.1,-0.097207546,0.046587877
00:02.1,-0.111534163,0.02312736
00:02.1,-0.115570344,-0.006666907
00:02.1,-0.097429492,-0.046547826
00:02.1,-0.078788154,-0.039229307
00:02.1,-0.050729971,-0.02105446
00:02.1,0.017868793,-0.019860327
00:02.1,0.172805429,0.0159379
00:02.1,0.441147447,0.11428237
00:02.1,0.628733218,0.133281723
00:02.1,0.652472377,0.100292474
00:02.1,0.564675093,0.054847389
00:02.1,0.389875829,0.080840707
00:02.1,0.166053787,0.008115917
00:02.1,-0.027362635,-0.092081919
00:02.1,-0.137610421,-0.127726912
00:02.1,-0.205390766,-0.137212813
00:02.1,-0.316381484,-0.092396624
00:02.1,-0.454717577,-0.026117902
00:02.1,-0.574758887,0.003074184
00:02.1,-0.634744763,0.002594716
00:02.1,-0.639945686,0.001968835
00:02.1,-0.606689274,-0.007584378
00:02.1,-0.552656114,-0.026031021
00:02.1,-0.508512795,-0.03888417
00:02.1,-0.447449982,-0.046535332
00:02.1,-0.256576985,0.008581377
00:02.1,-0.019305445,0.106133416
00:02.1,0.224178284,0.103389345
00:02.1,0.530395746,0.047248606
00:02.1,0.785224795,-0.041647024
00:02.1,0.892689526,-0.128718019
00:02.1,0.876571417,-0.111293435
00:02.1,0.78406924,-0.012103393
00:02.1,0.682492256,0.034668501
00:02.1,0.587535083,0.062903412
00:02.1,0.414928526,0.134750873
00:02.1,0.269468814,0.162504345
00:02.1,0.160663545,0.113904804
00:02.1,0.011810795,0.039151337
00:02.1,-0.11115855,-0.018921651
00:02.1,-0.146253824,-0.066180989
00:02.1,-0.241689727,-0.110970572
00:02.1,-0.36935088,-0.122152135
00:02.1,-0.529557884,-0.123678327
00:02.1,-0.676793277,-0.113004848
00:02.1,-0.759505749,-0.071803242
00:02.1,-0.763557196,-0.018880626
00:02.1,-0.690969765,0.001282341
00:02.1,-0.599215806,-0.013461542
00:02.1,-0.503310144,-0.007463827
00:02.1,-0.44034034,0.020039357
00:02.1,-0.354379058,0.062758401
00:02.1,-0.18277511,0.074651234
00:02.1,-0.004214211,0.088246129
00:02.1,0.139305353,0.118518226
00:02.1,0.303761542,0.105555862
00:02.1,0.577183723,0.043513313
00:02.1,1.004019499,-0.066062041
00:02.1,1.269380927,-0.019804133
00:02.1,1.181775689,0.104232401
00:02.1,1.218978047,0.129064873
00:02.2,1.1949054,0.098089494
00:02.2,0.732252061,0.029650856
00:02.2,0.203740492,-0.065343305
00:02.2,-0.244541705,-0.118466981
00:02.2,-0.56032604,-0.104283065
00:02.2,-0.799363971,-0.107217267
00:02.2,-0.962895095,-0.145850033
00:02.2,-1.028512239,-0.111463368
00:02.2,-1.051972628,-0.016041536
00:02.2,-1.025007248,0.00574671
00:02.2,-0.946375012,-0.005806876
00:02.2,-0.846801937,0.003842823
00:02.2,-0.675802827,0.039157975
00:02.2,-0.49537158,0.046436597
00:02.2,-0.305772305,0.026543273
00:02.2,-0.083277047,0.031832185
00:02.2,0.194323316,0.042746697
00:02.2,0.607946932,-0.015930232
00:02.2,0.983329952,-0.066917554
00:02.2,1.22063601,-0.004873881
00:02.2,1.360829234,0.053773131
00:02.2,1.617717266,0.144742653
00:02.2,1.699691415,0.178354114
00:02.2,1.347636104,0.068580106
00:02.2,0.860925436,0.049720973
00:02.2,0.417330325,0.028907968
00:02.2,0.019507337,-0.050147191
00:02.2,-0.365689039,-0.090379313
00:02.2,-0.745381355,-0.129266366
00:02.2,-1.033854723,-0.126588568
00:02.2,-1.200051308,-0.106105737
00:02.2,-1.245973945,-0.084064074
00:02.2,-1.208538771,-0.079661362
00:02.2,-1.201921105,-0.071729183
00:02.2,-1.180197239,-0.016390236
00:02.2,-1.08000493,0.023285922
00:02.2,-0.874314129,0.045423463
00:02.2,-0.513056278,0.045637518
00:02.2,-0.238460183,0.099160135
00:02.2,0.034039132,0.210629061
00:02.2,0.32591036,0.250895917
00:02.2,0.622121632,0.146678865
00:02.2,0.886342227,0.019290956
00:02.2,1.135209322,-0.102710947
00:02.2,1.237326264,-0.187293917
00:02.2,1.158750415,-0.1767205
00:02.2,1.118231773,-0.249830127
00:02.2,1.249812841,-0.109260909
00:02.2,1.183402181,0.092868425
00:02.2,0.822101951,0.081158765
00:02.2,0.329040974,0.068712123
00:02.2,0.00930044,0.065073431
00:02.2,-0.199155182,0.066326305
00:02.2,-0.542428792,0.033794146
00:02.2,-0.863231301,0.02325874
00:02.2,-1.058092475,0.02669262
00:02.2,-1.093847752,-0.002357626
00:02.2,-1.092511892,-0.030866493
00:02.2,-1.117391944,-0.047265261
00:02.2,-0.975351155,-0.058724042
00:02.2,-0.658056617,-0.043028452
00:02.2,-0.483443409,-0.047312453
00:02.2,-0.451370537,-0.080589622
00:02.2,-0.352307916,-0.14080669
00:02.2,-0.176980644,-0.089271903
00:02.2,0.00882844,-0.021718802
00:02.2,0.277883828,0.090556547
00:02.2,0.578535557,0.223805249
00:02.2,1.108977556,0.163008481
00:02.2,1.599725246,0.067498028
00:02.2,1.595756769,0.003026198
00:02.2,1.322244287,-0.01008579
00:02.2,0.98753041,-0.057713196
00:02.2,0.669434488,-0.049946863
00:02.2,0.17148678,0.022889795
00:02.2,-0.313448042,0.048186008
00:02.2,-0.617547274,-0.034483068
00:02.2,-0.828767121,-0.112711117
00:02.2,-0.925060689,-0.184216782
00:02.2,-0.918918729,-0.211337939
00:02.2,-0.844124556,-0.183412597
00:02.2,-0.888482094,-0.170538366
00:02.2,-0.922105789,-0.062153306
00:02.2,-0.910010338,0.141300201
00:02.2,-0.838620186,0.365756333
00:02.2,-0.566396236,0.493823916
00:02.2,-0.143953905,0.607817113
00:02.2,0.285287857,0.591750085
00:02.2,0.631854355,0.421761572
00:02.2,0.923884332,0.308867663
00:02.2,1.116154432,0.091813676
00:02.2,1.141642809,-0.199653894
00:02.2,1.035394311,-0.433991373
00:02.2,0.902385831,-0.416289687
00:02.2,0.751768291,-0.309099406
00:02.2,0.538219869,-0.336933404
00:02.2,0.37152341,-0.391668379
00:02.2,0.293945134,-0.323328584
00:02.2,0.185460746,-0.275399148
00:02.2,-0.005372199,-0.302708626
00:02.3,-0.121347502,-0.315140992
00:02.3,-0.187785044,-0.258526832
00:02.3,-0.205628097,-0.160054505
00:02.3,-0.125689268,-0.032205231
00:02.3,-0.218149737,0.055060159
00:02.3,-0.430032283,0.101705492
00:02.3,-0.594511032,0.159804583
00:02.3,-0.714084625,0.205576122
00:02.3,-0.733906388,0.233748376
00:02.3,-0.80274713,0.259958416
00:02.3,-0.871263325,0.266506732
00:02.3,-0.898669243,0.266341329
00:02.3,-0.880356908,0.263229817
00:02.3,-0.803522229,0.255040675
00:02.3,-0.638908744,0.222890228
00:02.3,-0.364518434,0.153098777
00:02.3,0.042521495,0.121881396
00:02.3,0.306392014,0.186029732
00:02.3,0.348226488,0.160589516
00:02.3,0.429357708,0.003368348
00:02.3,0.58812952,-0.127763957
00:02.3,0.775832534,-0.16376327
00:02.3,0.974861622,-0.208915383
00:02.3,1.098404169,-0.258224487
00:02.3,1.075139999,-0.226903528
00:02.3,1.02135241,-0.253845394
00:02.3,0.898644984,-0.17216216
00:02.3,0.650140285,-0.051455647
00:02.3,0.308486372,0.033989012
00:02.3,-0.004613078,-0.012825017
00:02.3,-0.244678885,-0.001777055
00:02.3,-0.401147693,0.025906986
00:02.3,-0.445777118,-0.019397007
00:02.3,-0.450734705,-0.162960976
00:02.3,-0.458625704,-0.19039388
00:02.3,-0.485700369,-0.047656696
00:02.3,-0.485690027,-0.018231222
00:02.3,-0.481451839,-0.041921142
00:02.3,-0.442180425,-0.054549668
00:02.3,-0.22705704,-0.008760449
00:02.3,0.048412342,0.038107216
00:02.3,-0.030561082,0.108435117
00:02.3,-0.188367605,0.181495816
00:02.3,-0.251988858,0.216449022
00:02.3,-0.230407655,0.200028643
00:02.3,-0.154617563,0.137657598
00:02.3,-0.080475971,0.037394993
00:02.3,-0.033865705,-0.010744019
00:02.3,0.029420327,-0.049703091
00:02.3,0.15640451,-0.074672014
00:02.3,0.328109056,-0.05226719
00:02.3,0.334190428,-0.020207545
00:02.3,0.248330444,0.02852636
00:02.3,0.231848225,-0.029103812
00:02.3,0.283151567,-0.092561625
00:02.3,0.327234179,-0.054332945
00:02.3,0.273343384,0.003141536
00:02.3,0.240630999,-0.004218921
00:02.3,0.277782887,0.05695783
00:02.3,0.12588191,0.077851996
00:02.3,-0.122021772,0.107038856
00:02.3,-0.227384806,0.146131143
00:02.3,-0.131679222,0.234825343
00:02.3,-0.090882704,0.092017531
00:02.3,-0.122695118,-0.11861632
00:02.3,-0.047622755,-0.11840006
00:02.3,0.045717873,-0.153752998
00:02.3,0.055647817,-0.192511991
00:02.3,-0.068203561,-0.19616507
00:02.3,-0.235731527,-0.161963567
00:02.3,-0.349891275,-0.11422772
00:02.3,-0.421435714,-0.033738554
00:02.3,-0.495152354,0.006849471
00:02.3,-0.534160256,0.033266533
00:02.3,-0.517997324,0.06211102
00:02.3,-0.483478278,0.071572587
00:02.3,-0.401019514,0.076692976
00:02.3,-0.288775742,0.086899765
00:02.3,-0.143744767,0.067039825
00:02.3,0.044690248,0.043222882
00:02.3,0.196215659,0.049887583
00:02.3,0.455199003,0.087329343
00:02.3,0.771265507,0.098772258
00:02.3,1.01434648,0.038207181
00:02.3,1.138696194,-0.021422414
00:02.3,0.954319477,0.005358534
00:02.3,0.767536581,0.015157419
00:02.3,0.673313498,0.035639878
00:02.3,0.507322073,0.109274819
00:02.3,0.235359386,0.046073563
00:02.3,-0.021124929,0.064889506
00:02.3,-0.279946029,-0.043587342
00:02.3,-0.512412667,-0.13060309
00:02.3,-0.637271106,-0.132829353
00:02.3,-0.724026203,-0.117345467
00:02.3,-0.588647544,-0.117820039
00:02.3,-0.278283894,-0.113026552
00:02.3,-0.386445373,-0.094893612
00:02.3,-0.637375355,-0.082172379
00:02.3,-0.725449979,-0.068026438
00:02.4,-0.686848044,-0.030637702
00:02.4,-0.586031556,0.031857051
00:02.4,-0.379175991,0.059407257
00:02.4,-0.171943739,0.067227624
00:02.4,-0.013475521,0.061724059
00:02.4,0.216093063,0.025646497
00:02.4,0.401624233,-0.017083939
00:02.4,0.505261242,0.070010699
00:02.4,0.647946656,0.196565494
00:02.4,0.969110012,0.132184803
00:02.4,1.063467145,0.120503701
00:02.4,0.907150328,0.104415521
00:02.4,0.835365057,0.027193261
00:02.4,0.857548714,-0.058919355
00:02.4,0.692761421,-0.084305808
00:02.4,0.527325988,-0.033810489
00:02.4,0.208386391,-0.04861534
00:02.4,-0.250432312,-0.052384607
00:02.4,-0.571869731,-0.061988018
00:02.4,-0.965278804,-0.113847509
00:02.4,-1.407474399,-0.122830361
00:02.4,-1.707469583,-0.098659709
00:02.4,-1.78706193,-0.059373833
00:02.4,-1.642135262,-0.013302784
00:02.4,-1.37978375,0.024345687
00:02.4,-1.100172877,0.017703649
00:02.4,-0.787994623,0.01594482
00:02.4,-0.444479674,0.048663691
00:02.4,-0.059235804,0.054387219
00:02.4,0.44150582,0.064922996
00:02.4,0.973884821,0.036468685
00:02.4,1.449275255,-0.018154407
00:02.4,1.775337934,0.054999191
00:02.4,1.970099449,0.096126378
00:02.4,1.971307397,0.054598451
00:02.4,1.903731942,0.233718574
00:02.4,1.727915168,0.206336483
00:02.4,1.429920197,0.074443795
00:02.4,1.032376766,0.09006083
00:02.4,0.503890574,0.062788352
00:02.4,-0.022666717,-0.079278365
00:02.4,-0.481936991,-0.139909118
00:02.4,-0.753164589,-0.050336935
00:02.4,-0.940555274,-0.042353265
00:02.4,-1.138676524,-0.129559815
00:02.4,-1.288862705,-0.230069771
00:02.4,-1.450243115,-0.291188955
00:02.4,-1.538162947,-0.274234653
00:02.4,-1.504811049,-0.202716902
00:02.4,-1.299412131,-0.127853066
00:02.4,-1.028319359,-0.050744146
00:02.4,-0.87652725,-2.44E-05
00:02.4,-0.741770267,0.017464144
00:02.4,-0.516370595,0.022614108
00:02.4,-0.229968816,0.064958304
00:02.4,0.077063181,0.099286653
00:02.4,0.450242609,0.183120757
00:02.4,0.749764025,0.238615707
00:02.4,0.968248725,0.188519686
00:02.4,1.3281883,0.089404687
00:02.4,1.486391306,0.048414771
00:02.4,1.292473912,0.014495616
00:02.4,0.816794634,0.036745831
00:02.4,0.459030062,0.036990568
00:02.4,0.398705602,-0.052936371
00:02.4,0.41084367,-0.06423223
00:02.4,0.212474957,0.050196055
00:02.4,-0.053024225,0.051554326
00:02.4,-0.284224212,0.014177261
00:02.4,-0.477130115,0.018655702
00:02.4,-0.57164073,0.016502704
00:02.4,-0.488853157,-0.016812721
00:02.4,-0.138813794,-0.066226356
00:02.4,0.174427792,-0.111468419
00:02.4,0.085487939,-0.117489181
00:02.4,-0.202906415,-0.034886867
00:02.4,-0.429101497,0.0279349
00:02.4,-0.556275427,0.117495
00:02.4,-0.599869549,0.146777391
00:02.4,-0.526407778,0.027257077
00:02.4,-0.335221112,-0.092591971
00:02.4,-0.096608348,-0.151762769
00:02.4,0.143805429,-0.117497049
00:02.4,0.220653191,-0.063376732
00:02.4,0.211745992,-0.094844893
00:02.4,0.198946968,-0.089326769
00:02.4,0.219134763,-0.104917213
00:02.4,0.28694272,-0.013946546
00:02.4,0.365675628,0.148069382
00:02.4,0.385875136,0.194420248
00:02.4,0.363349646,0.186041892
00:02.4,0.347244918,0.142572448
00:02.4,0.317673385,0.03929795
00:02.4,0.268223226,0.015275643
00:02.4,0.201584265,-0.164323956
00:02.4,0.13946341,-0.228650168
00:02.4,0.34574458,-0.142258957
00:02.4,0.512047112,-0.032011334
00:02.4,0.209575325,0.240218416
00:02.4,-0.129807219,0.271171272
00:02.5,-0.368806928,0.130525932
00:02.5,-0.563234031,0.056598205
00:02.5,-0.51111269,-0.024765687
00:02.5,-0.634326696,-0.058749255
00:02.5,-0.904383063,-0.073729329
00:02.5,-1.018203735,-0.11975316
00:02.5,-1.007840157,-0.165783107
00:02.5,-0.947744012,-0.156346306
00:02.5,-0.883146584,-0.07588625
00:02.5,-0.721291244,0.019699901
00:02.5,-0.411078572,0.044515233
00:02.5,0.039577551,0.077238373
00:02.5,0.451059818,0.133408904
00:02.5,0.800893784,0.112272024
00:02.5,1.03979671,0.062181972
00:02.5,1.103212595,0.015815137
00:02.5,1.095083952,-0.011102965
00:02.5,1.048478603,-0.001403709
00:02.5,0.973144531,0.002833824
00:02.5,0.797103465,-0.001297248
00:02.5,0.558361828,-0.01030209
00:02.5,0.292670548,-0.030429957
00:02.5,0.112311646,-0.064218841
00:02.5,-0.049216416,-0.089151442
00:02.5,-0.017464802,-0.091859855
00:02.5,0.511101007,-0.034735888
00:02.5,0.66882354,-0.030496625
00:02.5,0.309478939,-0.04491698
00:02.5,-0.270596802,-0.059683159
00:02.5,-0.742433965,0.021614732
00:02.5,-1.095815897,0.127513632
00:02.5,-1.190823317,0.08552333
00:02.5,-1.096739531,0.000664471
00:02.5,-1.105286837,0.058200948
00:02.5,-1.133852601,0.05375272
00:02.5,-1.128721237,0.002186157
00:02.5,-1.059033513,0.006847138
00:02.5,-0.89811331,0.072111666
00:02.5,-0.683662236,0.145172164
00:02.5,-0.369515121,0.111535966
00:02.5,0.149413839,0.0497129
00:02.5,0.635073483,0.05559507
00:02.5,0.960590065,0.051915105
00:02.5,1.231992364,-0.047894742
00:02.5,1.384465098,-0.268926859
00:02.5,1.358855963,-0.254939139
00:02.5,1.28587687,-0.14906086
00:02.5,1.280493379,-0.052528501
00:02.5,1.34755075,0.115570389
00:02.5,1.235453844,0.181393966
00:02.5,0.851443052,0.149713203
00:02.5,0.457753569,-0.039166145
00:02.5,0.371946722,-0.038626336
00:02.5,0.381208271,-0.06519644
00:02.5,-0.100449666,-0.158837974
00:02.5,-0.777272522,-0.211437151
00:02.5,-1.325646758,-0.199992433
00:02.5,-1.685209394,-0.129517287
00:02.5,-1.843031049,-0.026980244
00:02.5,-1.850013256,0.078074031
00:02.5,-1.76659894,0.121250898
00:02.5,-1.561028123,0.12171787
00:02.5,-1.292914748,0.099320032
00:02.5,-0.890112579,0.090749994
00:02.5,-0.458952218,0.085901819
00:02.5,-0.067463927,0.051424619
00:02.5,0.362120688,0.010221155
00:02.5,0.760729074,0.053397171
00:02.5,1.092026353,0.197167158
00:02.5,1.343428135,0.212423742
00:02.5,1.652871966,0.046320423
00:02.5,1.700350404,-0.020108242
00:02.5,1.423260689,-0.028943684
00:02.5,1.042400122,-0.158402771
00:02.5,0.660927713,-0.19624804
00:02.5,0.341631502,-0.105319448
00:02.5,0.089763694,-0.018515406
00:02.5,-0.121159054,0.089603834
00:02.5,-0.28130129,0.1462515
00:02.5,-0.34660548,0.150935352
00:02.5,-0.360021502,0.013875147
00:02.5,-0.351856172,-0.126553625
00:02.5,-0.310988724,-0.125521332
00:02.5,-0.24716413,-0.103800453
00:02.5,-0.137647107,-0.119257338
00:02.5,-0.032008961,-0.127590209
00:02.5,-0.073265232,-0.070853829
00:02.5,-0.218817726,-0.000592409
00:02.5,-0.297169566,0.031738695
00:02.5,-0.422902972,0.020007771
00:02.5,-0.54795289,0.000288912
00:02.5,-0.582764089,-0.008901782
00:02.5,-0.578021884,-0.032837726
00:02.5,-0.54084754,-0.040588286
00:02.5,-0.415815204,0.012256891
00:02.5,-0.245151222,0.026015658
00:02.5,0.019843627,0.045936782
00:02.5,0.41498363,0.01384787
00:02.5,0.453274339,0.060212597
00:02.5,0.288464308,0.167631105
00:02.6,0.432230711,0.166492507
00:02.6,0.590488851,0.14605999
00:02.6,0.4724814,0.024062153
00:02.6,0.270572305,-0.037962876
00:02.6,0.044918466,-0.030842748
00:02.6,-0.028666221,-0.035666689
00:02.6,0.05518195,-0.03371742
00:02.6,0.128119886,0.043962084
00:02.6,0.038096156,0.012618128
00:02.6,-0.274228007,-0.100801915
00:02.6,-0.525948644,-0.19498533
00:02.6,-0.639878452,-0.159207046
00:02.6,-0.601406813,0.008622916
00:02.6,-0.45977214,0.076797791
00:02.6,-0.264508486,0.023543265
00:02.6,-0.066276714,-0.050141755
00:02.6,0.186207369,-0.017189194
00:02.6,0.386351764,0.060430694
00:02.6,0.502083898,0.041493487
00:02.6,0.640066147,0.000581284
00:02.6,0.749259949,-0.032177266
00:02.6,0.736325502,-0.034190446
00:02.6,0.715526521,0.023543892
00:02.6,0.609332681,0.112416334
00:02.6,0.445821345,0.179643229
00:02.6,0.284649074,0.131289735
00:02.6,0.212990135,0.032549694
00:02.6,0.182918191,-0.080002576
00:02.6,0.1303785,-0.10080982
00:02.6,-0.218159795,-0.062639989
00:02.6,-0.654420078,-0.044823393
00:02.6,-0.94778204,-0.058398623
00:02.6,-1.028048396,-0.062370542
00:02.6,-0.958683491,-0.041393366
00:02.6,-0.885566652,-0.037725598
00:02.6,-0.643299639,0.009312257
00:02.6,-0.269123554,0.042877592
00:02.6,-0.213362947,0.096057311
00:02.6,-0.325213045,0.061342336
00:02.6,-0.384161413,-0.006928442
00:02.6,-0.317268521,-0.107481845
00:02.6,-0.167742848,-0.132441267
00:02.6,0.064706899,-0.022216834
00:02.6,0.249125108,0.000253689
00:02.6,0.360874563,0.007572914
00:02.6,0.546072543,0.094494969
00:02.6,0.732465327,0.08703196
00:02.6,0.948723793,-0.018746022
00:02.6,0.946661949,0.026314529
00:02.6,0.803392947,0.078635968
00:02.6,0.67348069,-0.044726264
00:02.6,0.521434665,-0.017939504
00:02.6,0.431814462,0.084928386
00:02.6,0.299395174,0.045059793
00:02.6,0.029368088,-0.012073074
00:02.6,-0.228229776,-0.020999139
00:02.6,-0.441970736,-0.035319295
00:02.6,-0.633630574,-0.037879184
00:02.6,-0.779614687,-0.054949153
00:02.6,-0.795397758,-0.033938855
00:02.6,-0.756206214,-0.008956648
00:02.6,-0.542706549,-0.086440355
00:02.6,-0.30987528,-0.021623177
00:02.6,-0.098597802,0.035322402
00:02.6,0.101243541,0.131248549
00:02.6,0.307597488,0.294405043
00:02.6,0.594960272,0.211763591
00:02.6,0.586002886,0.032362409
00:02.6,0.335559964,-0.13299273
00:02.6,0.098185666,-0.20670931
00:02.6,-0.08517471,-0.152887017
00:02.6,-0.191895425,-0.140329242
00:02.6,-0.18212533,-0.138786897
00:02.6,0.025226111,-0.128693208
00:02.6,0.101731703,-0.134631515
00:02.6,-0.093385339,-0.044785827
00:02.6,-0.342119187,0.065355517
00:02.6,-0.534372568,0.110655829
00:02.6,-0.587073088,0.111278966
00:02.6,-0.478539348,0.092332765
00:02.6,-0.255497605,0.008443191
00:02.6,0.004970574,-0.049474608
00:02.6,0.253607512,-0.036375381
00:02.6,0.475840718,0.024083946
00:02.6,0.491903812,0.054326147
00:02.6,0.312519193,0.138893753
00:02.6,0.111146182,0.269697338
00:02.6,0.065175354,0.167480797
00:02.6,0.041587885,-0.034708686
00:02.6,0.073686987,-0.101053335
00:02.6,0.194251716,-0.122262783
00:02.6,0.28850013,-0.081332445
00:02.6,0.318497658,-0.06774193
00:02.6,0.261626244,0.022689609
00:02.6,0.201691017,0.071183257
00:02.6,0.217522368,0.066382334
00:02.6,0.256198287,0.032915127
00:02.6,0.260270119,-0.0246496
00:02.6,0.134835392,-0.096146561
00:02.6,0.031668317,-0.110524878
00:02.7,0.458545178,-0.069431134
00:02.7,0.921280384,-0.023971798
00:02.7,0.379348487,0.025001764
00:02.7,-0.602261543,0.049179297
00:02.7,-1.2820611,0.010768414
00:02.7,-1.550596118,-0.004422797
00:02.7,-1.596190095,0.009417708
00:02.7,-1.524648905,0.039656367
00:02.7,-1.338847637,0.023042476
00:02.7,-1.105399013,-0.034444306
00:02.7,-0.781674802,-0.071095102
00:02.7,-0.37092638,-0.099729046
00:02.7,0.013871117,-0.047941402
00:02.7,0.403945416,0.035755478
00:02.7,0.99580884,0.050732538
00:02.7,1.757731915,0.088966288
00:02.7,2.080360651,0.154783487
00:02.7,2.138700962,0.090889648
00:02.7,2.015516758,0.010240874
00:02.7,1.59820962,-0.006744777
00:02.7,0.982072771,-0.001357467
00:02.7,0.388479799,-0.023219077
00:02.7,-0.153984487,-0.099898681
00:02.7,-0.647674501,-0.112611316
00:02.7,-1.100343227,-0.07919886
00:02.7,-1.397234321,-0.015005865
00:02.7,-1.432237267,0.067054674
00:02.7,-1.291644931,0.053558934
00:02.7,-1.106866241,-0.022231726
00:02.7,-0.932024002,-0.035114206
00:02.7,-0.715636492,-0.012405931
00:02.7,-0.445435971,-0.036823526
00:02.7,-0.108319916,-0.091732897
00:02.7,0.266726345,-0.069580317
00:02.7,0.608855665,-0.005660754
00:02.7,0.828044713,0.230434984
00:02.7,0.957113206,0.234773129
00:02.7,0.976797581,0.205810204
00:02.7,0.919607878,0.120294675
00:02.7,0.78968966,-0.083616748
00:02.7,0.587975621,-0.144311488
00:02.7,0.318945467,-0.168732554
00:02.7,0.012330913,-0.139968619
00:02.7,-0.225982144,-0.101835258
00:02.7,-0.347559601,-0.086774275
00:02.7,-0.371550798,-0.045581032
00:02.7,-0.335533649,0.022153258
00:02.7,-0.32156685,0.032949928
00:02.7,-0.189863726,-0.027966907
00:02.7,0.088241264,-0.014888181
00:02.7,-0.000587977,0.020281421
00:02.7,-0.387244642,0.074714027
00:02.7,-0.707092762,0.126314312
00:02.7,-0.859370291,0.143173695
00:02.7,-0.919845819,0.095129333
00:02.7,-0.887600183,0.023711281
00:02.7,-0.765375733,0.019838855
00:02.7,-0.527882516,0.00338338
00:02.7,-0.288692832,-0.010655708
00:02.7,-0.14689666,-0.124920838
00:02.7,0.022844005,-0.226148635
00:02.7,0.225306109,-0.222471163
00:02.7,0.328019768,-0.080369346
00:02.7,0.498773307,0.018786946
00:02.7,0.679257154,0.038333662
00:02.7,0.883669853,0.061041504
00:02.7,1.195531845,0.060804784
00:02.7,1.199519396,0.041552443
00:02.7,0.981172204,0.079115942
00:02.7,0.837858021,0.147114143
00:02.7,0.842620671,0.172063842
00:02.7,0.628061235,0.099026084
00:02.7,0.206107304,0.002373248
00:02.7,-0.195591405,0.056036063
00:02.7,-0.443453997,-0.019002881
00:02.7,-0.591182232,-0.112404659
00:02.7,-0.74058342,-0.118094325
00:02.7,-0.857122838,-0.117522463
00:02.7,-0.897936702,0.062686495
00:02.7,-0.851114511,0.188122928
00:02.7,-0.69904536,0.020388078
00:02.7,-0.405819535,-0.043697074
00:02.7,0.047996249,-0.127897024
00:02.7,0.211494803,-0.179591194
00:02.7,0.244235858,-0.115051217
00:02.7,0.303785652,0.020842228
00:02.7,0.348763168,0.058450256
00:02.7,0.269326985,-0.00370321
00:02.7,0.081765987,-0.022715652
00:02.7,-0.075791553,0.129798636
00:02.7,-0.191126481,0.143789828
00:02.7,-0.299106598,-0.001553322
00:02.7,-0.352928221,-0.097235136
00:02.7,-0.363560647,-0.152882814
00:02.7,-0.20244211,-0.141302228
00:02.7,0.254375517,-0.069761731
00:02.7,0.51364094,-0.060653899
00:02.7,0.19405739,-0.058017667
00:02.7,-0.197718114,0.004210104
00:02.7,-0.363075674,0.030602302
00:02.8,-0.298321694,0.055137035
00:02.8,-0.089266181,0.178833634
00:02.8,0.133684218,0.206879571
00:02.8,0.268804669,0.225002691
00:02.8,0.362637013,0.165251404
00:02.8,0.512771666,0.016020829
00:02.8,0.516501307,-0.085790314
00:02.8,0.33406204,-0.13543725
00:02.8,0.214586228,-0.142834678
00:02.8,0.292479128,-0.023665339
00:02.8,0.358222455,0.08194869
00:02.8,0.332960904,0.065875143
00:02.8,0.221346825,-0.010693736
00:02.8,0.061935458,-0.059315916
00:02.8,-0.079735592,-0.076980077
00:02.8,-0.167809591,-0.041943435
00:02.8,-0.295643002,0.004793128
00:02.8,-0.478997201,0.009727356
00:02.8,-0.487238497,-0.011450027
00:02.8,-0.364440501,-0.046554144
00:02.8,-0.315803438,0.00748027
00:02.8,-0.290420949,0.030580333
00:02.8,-0.192585126,-0.057079185
00:02.8,-0.020548966,0.024239162
00:02.8,0.124081172,0.062605411
00:02.8,0.126081675,0.021316461
00:02.8,0.052828744,-0.011610149
00:02.8,-0.064847447,0.00383947
00:02.8,-0.211543694,-0.00182991
00:02.8,-0.301649392,-0.019913375
00:02.8,-0.344599038,-0.043740697
00:02.8,-0.331569523,-0.068379924
00:02.8,-0.24410525,-0.054595936
00:02.8,-0.141029522,-0.004329155
00:02.8,-0.056352131,0.032641292
00:02.8,-0.00128618,0.040013544
00:02.8,0.05054998,-0.038847953
00:02.8,0.12824972,-0.122497968
00:02.8,0.26850754,-0.159592524
00:02.8,0.436917752,-0.068639196
00:02.8,0.522429287,0.111622989
00:02.8,0.570304155,0.150454938
00:02.8,0.619284153,0.133524582
00:02.8,0.678266287,0.171830982
00:02.8,0.441860259,0.135313869
00:02.8,0.105685264,0.085685492
00:02.8,-0.081508152,0.039984167
00:02.8,-0.032276314,-0.040373154
00:02.8,-0.094896734,-0.054073758
00:02.8,-0.278905511,-0.052267067
00:02.8,-0.420207888,-0.089887023
00:02.8,-0.491725475,-0.138271183
00:02.8,-0.329712629,-0.133495167
00:02.8,-0.084736235,-0.076955624
00:02.8,-0.082704186,-0.028408749
00:02.8,-0.103007019,-0.028690835
00:02.8,-0.106968023,0.004475252
00:02.8,-0.179574326,0.059795093
00:02.8,-0.271607518,0.158931866
00:02.8,-0.376667023,0.148829922
00:02.8,-0.389603376,0.209531307
00:02.8,-0.155496731,0.085992262
00:02.8,0.055623453,-0.122652456
00:02.8,-0.078303829,-0.197970882
00:02.8,-0.234082103,-0.155902296
00:02.8,-0.196804523,-0.1243072
00:02.8,0.008682164,-0.059880037
00:02.8,0.211005405,0.122727737
00:02.8,0.294075549,0.078144699
00:02.8,0.388520658,0.009660853
00:02.8,0.61619544,0.026500644
00:02.8,0.834920645,0.138336524
00:02.8,0.972938061,0.148800507
00:02.8,0.9640522,0.054042339
00:02.8,0.856074512,-0.025994726
00:02.8,0.607059002,-0.004927211
00:02.8,0.242290884,-0.031526975
00:02.8,-0.096293539,-0.075765908
00:02.8,-0.369118035,-0.094744854
00:02.8,-0.634487391,-0.122305058
00:02.8,-0.812856674,-0.075036205
00:02.8,-0.855834365,-0.056743272
00:02.8,-0.802637935,-0.021098386
00:02.8,-0.828718245,0.022436444
00:02.8,-0.845198452,0.04891884
00:02.8,-0.70819515,0.071075797
00:02.8,-0.662003934,0.056468643
00:02.8,-0.637490571,0.015519366
00:02.8,-0.438180506,0.006623948
00:02.8,-0.162977085,-0.00884514
00:02.8,0.104212239,-0.049208779
00:02.8,0.380884498,0.011258213
00:02.8,0.561182022,0.007068241
00:02.8,0.51464355,-0.054183275
00:02.8,0.40542829,-0.045698818
00:02.8,0.393981755,-0.017047711
00:02.8,0.569317997,0.106667168
00:02.8,0.756218374,0.030171746
00:02.8,0.722812533,-0.010130404
00:02.8,0.637454569,0.011153309
00:02.9,0.643776059,0.054583035
00:02.9,0.731170118,0.026433824
00:02.9,0.521948338,-0.007569212
00:02.9,0.104676403,0.016019952
00:02.9,-0.223750919,0.014249996
00:02.9,-0.406262547,0.046044882
00:02.9,-0.458491743,0.027694691
00:02.9,-0.476453245,-0.038059484
00:02.9,-0.489812881,-0.050556477
00:02.9,-0.444895834,-0.06464152
00:02.9,-0.426021814,-0.095529422
00:02.9,-0.477699667,-0.056632593
00:02.9,-0.445319891,0.004373509
00:02.9,-0.367123544,0.010919349
00:02.9,-0.221986666,-0.011928504
00:02.9,-0.080610178,-0.041476071
00:02.9,0.079511352,-0.040497258
00:02.9,0.250438064,-0.047074977
00:02.9,0.365800381,-0.025533564
00:02.9,0.370294154,0.119164072
00:02.9,0.324538469,0.159383371
00:02.9,0.36416623,0.148076952
00:02.9,0.474099934,0.055089127
00:02.9,0.489456594,0.009011261
00:02.9,0.312825948,-0.022543592
00:02.9,0.011066128,-0.046801209
00:02.9,-0.216949448,-0.050581016
00:02.9,-0.266639501,-0.08121071
00:02.9,-0.366316915,-0.07083267
00:02.9,-0.515156269,0.022743752
00:02.9,-0.549375594,0.158533141
00:02.9,-0.530204356,0.109136552
00:02.9,-0.544200718,-0.131038636
00:02.9,-0.564531446,-0.178608507
00:02.9,-0.542129695,-0.106465504
00:02.9,-0.432700902,-0.046586074
00:02.9,-0.276034921,-0.016581165
00:02.9,-0.053175006,0.006384167
00:02.9,0.126989812,0.014222234
00:02.9,0.284293473,0.030052416
00:02.9,0.385871559,0.053633329
00:02.9,0.490938157,0.079301789
00:02.9,0.588790238,0.067238696
00:02.9,0.595687568,0.014460752
00:02.9,0.575215936,-0.031860564
00:02.9,0.590674102,-0.083114251
00:02.9,0.618601441,-0.010945415
00:02.9,0.61576432,0.023097696
00:02.9,0.535570145,-0.000675833
00:02.9,0.370358437,0.06764552
00:02.9,0.156056538,0.17185241
00:02.9,0.104864895,0.152212203
00:02.9,0.359206945,0.136927336
00:02.9,0.4431943,0.078752868
00:02.9,0.102271676,-0.046674863
00:02.9,-0.365584344,-0.081168778
00:02.9,-0.756333768,-0.136912256
00:02.9,-1.013571024,-0.203649506
00:02.9,-1.070191383,-0.174721256
00:02.9,-0.776089013,-0.02501086
00:02.9,-0.556675673,-0.015608808
00:02.9,-0.698586285,-0.078935094
00:02.9,-0.912949502,-0.072479777
00:02.9,-0.999886632,-0.045112595
00:02.9,-0.833175719,-0.091429867
00:02.9,-0.431154579,-0.024983503
00:02.9,-0.018448144,0.051536661
00:02.9,0.212406829,0.095863111
00:02.9,0.402775288,0.187224165
00:02.9,0.603960156,0.185139671
00:02.9,0.740310133,0.159539267
00:02.9,0.804688871,0.195616782
00:02.9,0.8422243,0.146988809
00:02.9,0.975426495,0.075366139
00:02.9,1.214251876,0.012370226
00:02.9,1.099542022,-0.094202712
00:02.9,0.825413764,-0.123346969
00:02.9,0.643493891,-0.083582945
00:02.9,0.329798579,-0.232573718
00:02.9,-0.022405747,-0.270542532
00:02.9,-0.330337048,-0.171128526
00:02.9,-0.53417927,-0.114871182
00:02.9,-0.661652505,-0.012037836
00:02.9,-0.738653183,0.061520763
00:02.9,-0.770345569,0.061096247
00:02.9,-0.749325275,0.055338357
00:02.9,-0.576919258,0.091124043
00:02.9,-0.270575106,0.121292643
00:02.9,0.022772545,0.067862205
00:02.9,0.166083589,0.007520875
00:02.9,0.17645666,-0.020473052
00:02.9,0.263630062,0.027705437
00:02.9,0.256829619,0.184806153
00:02.9,-0.002612632,0.123613574
00:02.9,-0.299627781,-0.053897224
00:02.9,-0.504408121,-0.026888404
00:02.9,-0.609846711,0.010916891
00:02.9,-0.596127927,-0.015500984
00:02.9,-0.523927629,-0.038573328
00:02.9,-0.45377773,-0.008068846
00:03.0,-0.3916004,-0.005772157
00:03.0,-0.300467998,-0.105956241
00:03.0,-0.121037647,-0.227217004
00:03.0,0.172891498,-0.262548596
00:03.0,0.516131401,-0.14460738
00:03.0,0.837232769,0.000708513
00:03.0,1.076184154,0.226368934
00:03.0,1.230818391,0.438206375
00:03.0,1.165503383,0.290663928
00:03.0,0.874791324,0.031079635
00:03.0,0.601804316,-0.113686182
00:03.0,0.523119509,-0.080439635
00:03.0,0.470425576,-0.065858312
00:03.0,0.25390619,-0.103531934
00:03.0,-0.019570924,-0.181908414
00:03.0,-0.320883363,-0.132643819
00:03.0,-0.59877193,-0.061535183
00:03.0,-0.833283603,0.004272164
00:03.0,-1.007790327,0.029946007
00:03.0,-1.087412119,0.015315596
00:03.0,-1.048247337,-0.018082146
00:03.0,-0.876782119,-0.037099216
00:03.0,-0.676215947,-0.035909418
00:03.0,-0.56321758,0.107985049
00:03.0,-0.454568386,0.177526876
00:03.0,-0.282126367,0.07703869
00:03.0,-0.163903117,-0.056719426
00:03.0,-0.016460758,-0.041631315
00:03.0,0.296093047,0.139621273
00:03.0,0.699140966,0.194226727
00:03.0,0.927553535,0.110271715
00:03.0,1.085992932,0.045787044
00:03.0,1.174406171,0.136542901
00:03.0,0.977605939,0.119469501
00:03.0,0.632561207,0.000130133
00:03.0,0.306932837,-0.068853036
00:03.0,0.087333754,-0.181138277
00:03.0,-0.065013267,-0.142531469
00:03.0,-0.200105608,-0.143331528
00:03.0,-0.303364247,-0.215585634
00:03.0,-0.425218731,-0.232762143
00:03.0,-0.548109651,-0.189121485
00:03.0,-0.560741842,-0.104823045
00:03.0,-0.417664975,0.003234284
00:03.0,-0.312061906,0.130175576
00:03.0,-0.11367812,0.215937868
00:03.0,-0.084522739,0.203845277
00:03.0,-0.226724476,0.121603101
00:03.0,-0.305214226,0.011181572
00:03.0,-0.243426442,-0.09341529
0:00:03,-0.155184537,-0.116860762
00:03.0,-0.09989626,-0.05126423
00:03.0,-0.008675285,0.059243828
00:03.0,0.111470565,0.11518646
00:03.0,0.269924939,-0.016155098
00:03.0,0.685791731,-0.133663759
00:03.0,0.882704675,-0.158853814
00:03.0,0.639552653,-0.100719102
00:03.0,0.471016407,0.004838803
00:03.0,0.359991819,0.143739596
00:03.0,0.233858824,0.204137206
00:03.0,0.046534128,0.217643276
00:03.0,-0.29385981,0.314643294
00:03.0,-0.588187695,0.319853544
00:03.0,-0.754853189,0.241340637
00:03.0,-0.819573283,0.083298683
00:03.0,-0.854652107,-0.080103517
00:03.0,-0.842974126,-0.191993177
00:03.0,-0.607658148,-0.260845095
00:03.0,-0.25079295,-0.330288261
00:03.0,-0.001851086,-0.304971099
00:03.0,0.237975121,-0.153010905
00:03.0,0.517572999,0.047051162
00:03.0,0.801033735,0.079420038
00:03.0,1.13767004,0.153152764
00:03.0,1.511646509,0.020015363
00:03.0,1.331387997,-0.263679355
00:03.0,0.795691371,-0.301995516
00:03.0,0.229035944,-0.196148857
00:03.0,-0.20987612,-0.075569749
00:03.0,-0.505694807,-0.022058249
00:03.0,-0.733493149,0.089645483
00:03.0,-0.843146384,0.168364808
00:03.0,-0.816786528,0.218314901
00:03.0,-0.722190738,0.212473989
00:03.0,-0.602827609,0.067633398
00:03.0,-0.434713244,-0.038249224
00:03.0,-0.209258795,-0.043306749
00:03.0,-0.183845714,0.103727356
00:03.0,-0.2609981,0.177203864
00:03.0,-0.236701548,0.058194883
00:03.0,-0.067033269,-0.070358194
00:03.0,0.206135258,-0.053959589
00:03.0,0.410200924,0.018767312
00:03.0,0.478677243,0.087754801
00:03.0,0.462156922,0.142517641
00:03.0,0.385426164,0.065300882
00:03.0,0.305339217,0.020424915
00:03.0,0.306807429,-0.072950527
00:03.0,0.282078087,-0.178120866
00:03.1,0.266092002,-0.104675949
00:03.1,0.248045951,-0.012406485
00:03.1,0.319873154,-0.001713307
00:03.1,0.492700994,-0.05970813
00:03.1,0.395011514,-0.091132089
00:03.1,0.06186308,-0.053109761
00:03.1,-0.23664239,-0.024437601
00:03.1,-0.468753666,-0.008024273
00:03.1,-0.550487459,-0.071822524
00:03.1,-0.321632236,-0.092811003
00:03.1,-0.121471472,0.02302747
00:03.1,-0.349291503,0.104808167
00:03.1,-0.662072122,0.094788395
00:03.1,-0.730861664,0.006152821
00:03.1,-0.611881018,0.011558112
00:03.1,-0.491200179,0.042543653
00:03.1,-0.313728094,0.009887213
00:03.1,-0.008129489,-0.009626795
00:03.1,0.252652198,-0.041564796
00:03.1,0.390251726,-0.082096517
00:03.1,0.347746879,-0.055981994
00:03.1,0.191551566,-0.026324708
00:03.1,0.094852105,0.034745324
00:03.1,0.092170216,0.113807067
00:03.1,0.222988024,0.26700592
00:03.1,0.269616872,0.220240369
00:03.1,0.2130775,-0.095193841
00:03.1,0.136419728,-0.272936553
00:03.1,0.070627771,-0.020939069
00:03.1,0.070191763,0.252209723
00:03.1,0.158030793,0.421082497
00:03.1,0.303235441,0.165418178
00:03.1,0.399192184,-0.208928376
00:03.1,0.396976858,-0.325295687
00:03.1,0.382388711,-0.247584596
00:03.1,0.498137176,-0.11329817
00:03.1,0.473510444,-0.039851036
00:03.1,0.164500743,0.003945017
00:03.1,-0.071921788,-0.014447714
00:03.1,-0.271550596,-0.037576705
00:03.1,-0.461156636,-0.0385524
00:03.1,-0.592494667,-0.011819426
00:03.1,-0.661375165,0.007450728
00:03.1,-0.682667077,-0.024160696
00:03.1,-0.704495907,-0.04772931
00:03.1,-0.750742376,-0.027645851
00:03.1,-0.631277502,0.009007812
00:03.1,-0.424500734,0.003506019
00:03.1,-0.259803385,-0.027007364
00:03.1,-0.11592643,-0.020241883
00:03.1,0.114127174,0.027153421
00:03.1,0.493901014,0.099563561
00:03.1,0.976453781,0.23785603
00:03.1,1.270927072,0.208737031
00:03.1,1.081774592,0.117321424
00:03.1,0.612712801,0.065676913
00:03.1,0.201719716,0.063995898
00:03.1,-0.096978351,-0.020116083
00:03.1,-0.309995681,-0.142814979
00:03.1,-0.453695774,-0.187237769
00:03.1,-0.564298153,-0.088242851
00:03.1,-0.629112959,0.068229347
00:03.1,-0.593827009,0.043684971
00:03.1,-0.505579293,-0.103329733
00:03.1,-0.273297161,-0.190060958
00:03.1,0.008979562,-0.158174917
00:03.1,0.190818101,0.017141823
00:03.1,0.472935587,0.045403082
00:03.1,0.638489544,0.007836815
00:03.1,0.723659158,0.031900261
00:03.1,0.805052102,0.167233527
00:03.1,0.838510334,0.173027813
00:03.1,0.478158981,0.065551482
00:03.1,-0.000903782,0.000253228
00:03.1,-0.373789966,-0.082891069
00:03.1,-0.637156069,-0.123902515
00:03.1,-0.830464244,-0.071377017
00:03.1,-0.940496862,-0.036982458
00:03.1,-0.946360588,-0.087686487
00:03.1,-0.798835337,-0.063815199
00:03.1,-0.545199752,0.035822049
00:03.1,-0.289054066,0.069771133
00:03.1,-0.025326692,0.117964983
00:03.1,0.334474713,0.070718087
00:03.1,0.616284013,0.008688956
00:03.1,0.908797085,0.001106612
00:03.1,1.296330929,0.094432637
00:03.1,1.221012354,0.087688811
00:03.1,0.678244054,0.041440848
00:03.1,0.164642528,0.019085828
00:03.1,-0.191616699,-0.040890798
00:03.1,-0.393059194,-0.073528431
00:03.1,-0.483324707,-0.076875255
00:03.1,-0.474953264,-0.114819765
00:03.1,-0.455544353,-0.146683022
00:03.1,-0.380993515,-0.102905616
00:03.1,-0.171729043,-0.015270354
00:03.1,0.094564982,0.033687409
00:03.1,0.115978129,0.045538366
00:03.1,-0.091582917,0.05117118
00:03.2,-0.204674751,0.101171531
00:03.2,-0.162234917,0.154670939
00:03.2,-0.084271312,0.046965826
00:03.2,-0.021300433,-0.05645299
00:03.2,-0.012557463,-0.053548884
00:03.2,-0.028091339,-0.119488239
00:03.2,-0.024874479,-0.094810158
00:03.2,-0.000676391,-0.002215475
00:03.2,-0.018904902,0.038849559
00:03.2,0.04223907,0.066782594
00:03.2,0.119573504,0.074473538
00:03.2,0.247981578,0.041325148
00:03.2,0.245601773,-0.009925044
00:03.2,0.138008922,-0.072060987
00:03.2,0.076604053,-0.013652982
00:03.2,0.034177229,0.055244092
00:03.2,0.010820671,0.043212846
00:03.2,0.018595548,0.004582777
00:03.2,-0.036384061,-0.051446326
00:03.2,-0.066515081,-0.045405231
00:03.2,-0.029013108,0.020961361
00:03.2,0.00188474,0.033047397
00:03.2,-0.010013736,0.010471926
00:03.2,-0.06942299,-0.035896268
00:03.2,-0.098158211,0.01062873
00:03.2,-0.055218603,0.091701142
00:03.2,0.059674103,0.033366054
00:03.2,0.180636168,-0.069685429
00:03.2,0.215993673,-0.091680728
00:03.2,0.130136132,-0.096798927
00:03.2,-0.037745479,-0.071910486
00:03.2,-0.173762813,-0.056625444
00:03.2,-0.276368409,-0.016288733
00:03.2,-0.247638032,0.156949773
00:03.2,-0.111124858,0.228595331
00:03.2,-0.062331438,0.112553693
00:03.2,-0.0926608,0.015764248
00:03.2,-0.104396053,-0.038752194
00:03.2,-0.030335188,-0.102558717
00:03.2,0.032342106,-0.053376347
00:03.2,0.046837449,-0.028372107
00:03.2,0.110984229,-0.028953919
00:03.2,0.073497899,0.013396189
00:03.2,-0.018879635,0.028832095
00:03.2,-0.08681678,0.039472304
00:03.2,-0.190401152,0.014361738
00:03.2,-0.249856129,-0.044027537
00:03.2,-0.197035253,-0.099137649
00:03.2,-0.103632681,-0.128136128
00:03.2,-0.053890124,-0.10996455
00:03.2,0.042662289,0.080161855
00:03.2,0.20452027,0.102698714
00:03.2,0.394652158,0.024177907
00:03.2,0.549338281,0.015907066
00:03.2,0.567706048,0.037714992
00:03.2,0.569391966,0.093380585
00:03.2,0.708810627,0.083031222
00:03.2,0.828529954,0.018678177
00:03.2,0.496498793,-0.028613269
00:03.2,-0.060025383,-0.047636256
00:03.2,-0.500772297,-0.047185156
00:03.2,-0.787580669,-0.061146293
00:03.2,-0.960039794,-0.028208379
00:03.2,-0.946493149,-0.013866315
00:03.2,-0.750262916,0.005971657
00:03.2,-0.5925861,0.125744015
00:03.2,-0.485815018,0.133241817
00:03.2,-0.326540381,-0.167345151
00:03.2,-0.259205848,-0.224791259
00:03.2,-0.230293557,-0.027251525
00:03.2,0.207482308,0.130120158
00:03.2,0.784271955,0.166913435
00:03.2,1.091241241,0.129072472
00:03.2,1.01401186,0.020345001
00:03.2,0.753867447,-0.10459397
00:03.2,0.55537957,-0.106384464
00:03.2,0.287166208,-0.031485036
00:03.2,-0.054572389,-0.027784621
00:03.2,-0.318114936,-0.031717282
00:03.2,-0.543754935,-0.026067937
00:03.2,-0.66661346,0.012188268
00:03.2,-0.479614556,0.066880457
00:03.2,-0.346323103,0.10355188
00:03.2,-0.364573538,0.088782713
00:03.2,-0.365410805,0.015787136
00:03.2,-0.21555832,-0.046414692
00:03.2,-0.018651698,-0.051330235
00:03.2,0.132993743,-0.069447137
00:03.2,0.274389088,-0.115498967
00:03.2,0.358672708,-0.119284198
00:03.2,0.432413697,-0.032592483
00:03.2,0.492309272,0.04863869
00:03.2,0.478193372,0.065233648
00:03.2,0.386445373,0.116195127
00:03.2,0.267258912,0.110598929
00:03.2,0.17286247,-0.011017264
00:03.2,0.017727334,-0.170236111
00:03.2,-0.077566408,-0.103490636
00:03.2,-0.128375679,0.029726835
00:03.2,-0.259030432,0.070740968
00:03.3,-0.384390593,0.180658117
00:03.3,-0.361537606,0.155035853
00:03.3,-0.26834479,-0.038237032
00:03.3,-0.141654164,-0.061543487
00:03.3,-0.048658021,-0.032015931
00:03.3,-0.041937131,-0.017271379
00:03.3,-0.105724558,0.005145399
00:03.3,-0.115895808,-0.001211608
00:03.3,-0.081670284,-0.055951916
00:03.3,-0.062163651,-0.152574524
00:03.3,-0.056578271,-0.049502891
00:03.3,-0.054261804,0.032981467
00:03.3,0.000785873,0.059494074
00:03.3,0.003228347,0.017482575
00:03.3,-0.017180704,0.0489715
00:03.3,0.062868856,0.08166723
00:03.3,0.210276499,-0.000711644
00:03.3,0.168723047,-0.061142989
00:03.3,8.44E-05,-0.066269025
00:03.3,-0.038732421,-0.125699952
00:03.3,0.086335376,-0.130741224
00:03.3,0.116029471,0.007152009
00:03.3,-0.046296351,0.139770433
00:03.3,-0.190066621,0.197614506
00:03.3,-0.150570258,0.112668902
00:03.3,0.048793048,-0.004314379
00:03.3,0.323264003,-0.045597881
00:03.3,0.306548238,-0.067810372
00:03.3,0.14508833,-0.071101926
00:03.3,0.032509752,-0.043721076
00:03.3,-0.152876019,-0.00835441
00:03.3,-0.42271021,0.024463475
00:03.3,-0.535748839,0.052554131
00:03.3,-0.396908969,0.074596047
00:03.3,-0.106055416,0.063137755
00:03.3,-0.000616924,0.031308811
00:03.3,-0.02108426,-0.006215578
00:03.3,-0.052577157,-0.057366684
00:03.3,-0.068231113,-0.066939518
00:03.3,0.219947338,-0.02709372
00:03.3,0.558933198,0.079962797
00:03.3,0.39138034,0.002816105
00:03.3,0.170480937,0.003259715
00:03.3,0.193740025,-0.00274706
00:03.3,0.3210271,-0.070331611
00:03.3,0.361693174,-0.101549931
00:03.3,0.255345225,-0.061692819
00:03.3,0.140251234,-0.007876213
00:03.3,0.254954338,0.009692916
00:03.3,0.262415022,0.10642381
00:03.3,-0.056314141,0.165551215
00:03.3,-0.32782951,0.095853671
00:03.3,-0.418443978,0.001436484
00:03.3,-0.346000284,-0.144625992
00:03.3,-0.270608693,-0.146498203
00:03.3,-0.058486119,-0.085054271
00:03.3,0.057669375,-0.002591209
00:03.3,-0.079575352,0.000608353
00:03.3,-0.215577945,-0.071549311
00:03.3,-0.273503363,-0.052495506
00:03.3,-0.333089352,-0.032150913
00:03.3,-0.307645202,0.122024454
00:03.3,-0.26807183,0.199748158
00:03.3,-0.241268352,0.194488302
00:03.3,-0.180029705,0.037975289
00:03.3,-0.090499774,-0.045675229
00:03.3,0.06917946,-0.06359949
00:03.3,0.164196476,-0.043592047
00:03.3,0.26415962,0.051914163
00:03.3,0.391700029,0.08137954
00:03.3,0.498035163,0.156059146
00:03.3,0.665185273,0.083896518
00:03.3,0.711462617,-0.050681017
00:03.3,0.530918896,-0.16644758
00:03.3,0.295434773,-0.245134562
00:03.3,0.229330972,-0.237395614
00:03.3,0.280743748,-0.183247209
00:03.3,0.084703594,-0.165411294
00:03.3,-0.244208872,-0.079210974
00:03.3,-0.53928721,0.150041386
00:03.3,-0.724272013,0.221281156
00:03.3,-0.817430079,0.196113691
00:03.3,-0.880783916,0.183447391
00:03.3,-0.890567243,0.141337201
00:03.3,-0.786839724,0.078488268
00:03.3,-0.601768076,0.01619925
00:03.3,-0.359523892,-0.080976248
00:03.3,-0.145286247,-0.158715412
00:03.3,0.006718471,-0.135246545
00:03.3,0.253547132,0.065954983
00:03.3,0.63453126,0.057354733
00:03.3,0.990813613,-0.043609068
00:03.3,1.087923884,-0.088619381
00:03.3,1.040398836,-0.031675272
00:03.3,0.83671087,-0.015414485
00:03.3,0.60173142,0.037460491
00:03.3,0.358765632,0.044982918
00:03.3,0.053967889,0.02359651
00:03.3,-0.215471759,-0.000424548
00:03.3,-0.349457771,-0.001554698
00:03.4,-0.247682258,-0.028824136
00:03.4,-0.304619372,-0.033457253
00:03.4,-0.544762909,-0.063603014
00:03.4,-0.659124076,-0.047576901
00:03.4,-0.655904055,-0.004000963
00:03.4,-0.643847108,0.057222087
00:03.4,-0.443736792,0.015860369
00:03.4,-0.139371052,-0.048780609
00:03.4,0.070927978,-0.045096159
00:03.4,0.210284323,0.014167503
00:03.4,0.516212881,0.039504532
00:03.4,0.667375267,0.095169112
00:03.4,0.362502426,0.118523113
00:03.4,0.123475239,0.181085095
00:03.4,0.011151007,0.196862012
00:03.4,-0.090231352,0.058992025
00:03.4,-0.121274099,-0.05437291
00:03.4,-0.064864367,-0.120088764
00:03.4,-0.035236921,-0.140715837
00:03.4,-0.001735336,-0.009648092
00:03.4,0.080411665,0.112901911
00:03.4,0.143659383,-0.005935285
00:03.4,0.107258469,-0.033762965
00:03.4,0.038435835,-0.057021156
00:03.4,0.062440649,-0.039115984
00:03.4,0.148752749,-0.091216855
00:03.4,0.186993629,-0.126667872
00:03.4,0.305627137,-0.120289586
00:03.4,0.413153708,-0.114043638
00:03.4,0.193589926,-0.093264237
00:03.4,-0.067169026,-0.050463025
00:03.4,-0.160679221,-0.108712956
00:03.4,-0.277227581,-0.002456211
00:03.4,-0.395042598,0.083593428
00:03.4,-0.467519999,0.073042609
00:03.4,-0.522496998,0.075449049
00:03.4,-0.514706492,0.205624089
00:03.4,-0.470861644,0.118035749
00:03.4,-0.32562077,-0.01127808
00:03.4,-0.188245207,0.060197286
00:03.4,-0.1576107,0.251552194
00:03.4,0.041560113,0.249647707
00:03.4,0.139475629,0.144057661
00:03.4,0.072924472,-0.026925502
00:03.4,0.086983629,-0.169296548
00:03.4,0.180771306,-0.185976759
00:03.4,0.220087826,-0.153666019
00:03.4,0.323846877,-0.132752299
00:03.4,0.414193213,-0.096631646
00:03.4,0.318028301,-0.026308931
00:03.4,0.094716951,0.000947545
00:03.4,-0.026582386,-0.058556184
00:03.4,0.055247284,-0.138009951
00:03.4,0.190516457,-0.11768724
00:03.4,0.339282721,-0.000574036
00:03.4,0.482658625,0.067268021
00:03.4,0.571507215,0.089530908
00:03.4,0.60579741,0.036380585
00:03.4,0.513312459,0.071324155
00:03.4,0.351330012,0.093580045
00:03.4,0.046478003,0.002128747
00:03.4,-0.183569908,0.055077448
00:03.4,-0.397225559,0.047692802
00:03.4,-0.610594332,0.025819333
00:03.4,-0.718418956,-0.003365383
00:03.4,-0.739734471,0.054968432
00:03.4,-0.733085811,0.169652924
00:03.4,-0.704760075,0.091458425
00:03.4,-0.642299175,-0.045450915
00:03.4,-0.536820412,-0.134258702
00:03.4,-0.409896612,-0.103815816
00:03.4,-0.282292485,-0.055707388
00:03.4,-0.020553868,-0.009375975
00:03.4,0.396826476,0.031824544
00:03.4,0.605715275,-0.005792486
00:03.4,0.658383131,-0.021115549
00:03.4,0.652960181,-0.016772704
00:03.4,0.586877763,0.012785409
00:03.4,0.441868365,-0.030049568
00:03.4,0.286750853,-0.054780602
00:03.4,0.188494861,-0.043163422
00:03.4,0.076694682,-0.009753199
00:03.4,-0.062249534,0.043149266
00:03.4,-0.18320483,0.058033001
00:03.4,-0.262956142,-0.082030416
00:03.4,-0.294182867,-0.151098296
00:03.4,-0.217915282,0.019263007
00:03.4,-0.01741275,0.088115051
00:03.4,0.214525342,-0.019448202
00:03.4,0.214066997,-0.023570625
00:03.4,0.077561803,-0.062073555
00:03.4,0.002794379,-0.018763909
00:03.4,0.012090166,-0.031710573
00:03.4,0.039934721,-0.041406371
00:03.4,0.066638105,-0.020585874
00:03.4,0.124582343,0.075734138
00:03.4,0.033168029,0.190985978
00:03.4,-0.24085021,0.14868176
00:03.4,-0.456344336,0.061144266
00:03.4,-0.566452026,0.073569708
00:03.5,-0.563374698,0.104524374
00:03.5,-0.505548537,0.048489209
00:03.5,-0.313038617,0.050643694
00:03.5,-0.054007173,-0.024709189
00:03.5,0.046382051,-0.172055349
00:03.5,0.136171252,-0.236494079
00:03.5,0.274105996,-0.085056908
00:03.5,0.547854066,0.10541825
00:03.5,0.784670532,0.18965295
00:03.5,0.762313008,0.064777419
00:03.5,0.564398646,-0.074915633
00:03.5,0.460760415,-0.134449109
00:03.5,0.443193436,-0.14254871
00:03.5,0.431749374,-0.125552654
00:03.5,0.461737186,-0.057155658
00:03.5,0.152263328,0.001775721
00:03.5,-0.485078424,0.045463424
00:03.5,-0.958302021,0.097957283
00:03.5,-1.153458834,0.127677396
00:03.5,-1.124898195,0.063208826
00:03.5,-0.947299838,0.066815406
00:03.5,-0.792618632,0.052555814
00:03.5,-0.554851055,-0.08397308
00:03.5,-0.3043468,-0.130015597
00:03.5,-0.05232387,-0.0703113
00:03.5,0.249183461,-0.004005886
00:03.5,0.625421643,0.07847324
00:03.5,0.784630001,0.077564403
00:03.5,0.752945721,0.002427682
00:03.5,0.710504174,-0.044362038
00:03.5,0.763604045,0.024768505
00:03.5,0.931435943,0.073224261
00:03.5,0.939700723,-0.017013161
00:03.5,0.629608214,-0.063054174
00:03.5,0.244370595,-0.02358273
00:03.5,-0.217108488,-0.087128952
00:03.5,-0.666586101,-0.108356088
00:03.5,-0.946473837,0.033852652
00:03.5,-0.997942984,0.160087496
00:03.5,-0.888689101,0.057624515
00:03.5,-0.777684033,-0.015191122
00:03.5,-0.664423466,-0.058806449
00:03.5,-0.473579079,0.005003461
00:03.5,-0.168031424,0.057134647
00:03.5,0.104450576,0.056481715
00:03.5,0.199346185,-0.030817445
00:03.5,0.2529414,-0.069037803
00:03.5,0.400360078,-0.032774262
00:03.5,0.61510545,-0.011935453
00:03.5,0.688337266,0.047008011
00:03.5,0.642116308,0.078655474
00:03.5,0.630147159,0.156797513
00:03.5,0.581792593,0.070816331
00:03.5,0.443787694,-0.041871674
00:03.5,0.197381303,-0.039857097
00:03.5,-0.084739387,-0.151022866
00:03.5,-0.284258753,-0.109408632
00:03.5,-0.364748299,-0.034910928
00:03.5,-0.366813034,-0.004574436
00:03.5,-0.366537362,0.04541136
00:03.5,-0.374451131,0.021912511
00:03.5,-0.29294619,-0.031225633
00:03.5,-0.218677729,-0.043647047
00:03.5,-0.255455852,-0.042881493
00:03.5,-0.335339248,-0.073702961
00:03.5,-0.36247471,-0.039452236
00:03.5,-0.309149534,-0.021433355
00:03.5,-0.246453568,-0.068050638
00:03.5,-0.196824431,-0.099609099
00:03.5,-0.065933071,-0.014636112
00:03.5,0.110024497,0.058541525
00:03.5,0.24892652,0.126579389
00:03.5,0.346614897,0.309247494
00:03.5,0.362381518,0.286789775
00:03.5,0.345161527,0.016362024
00:03.5,0.345525652,-0.091357663
00:03.5,0.329841137,-0.044545379
00:03.5,0.319112241,-0.032392178
00:03.5,0.28977257,-0.028844427
00:03.5,0.33648029,0.009579502
00:03.5,0.531684279,-0.046191636
00:03.5,0.438393146,-0.046741672
00:03.5,0.209676504,-0.089016929
00:03.5,-0.055188932,-0.120560594
00:03.5,-0.333640963,-0.069537319
00:03.5,-0.597857118,-0.083328992
00:03.5,-0.787899435,-0.022341341
00:03.5,-0.848197818,0.088409349
00:03.5,-0.772631288,0.129355118
00:03.5,-0.609983265,0.086703852
00:03.5,-0.443966925,0.022524714
00:03.5,-0.300847024,-0.009159993
00:03.5,-0.164856911,-0.031495772
00:03.5,0.017398026,-0.068070084
00:03.5,0.146863148,-0.03311887
00:03.5,0.228548557,0.047406908
00:03.5,0.384736091,0.089937136
00:03.5,0.479877025,0.162441507
00:03.5,0.497541964,0.096994624
